#    time[fs]         Re(autocorrel)     Im(autocorrel)     Abs(autocorrel)
     0.00000000       1.00000000000000   0.00000000000000   1.00000000000000
     0.01000000       1.00000000000000  -0.00531690437755   1.00001413463619
     0.02000000       0.99994677839170  -0.01063372932951   1.00000331790219
     0.03000000       0.99984033787114  -0.01594990004013   0.99996754974628
     0.04000000       0.99968068892423  -0.02126484176313   0.99990683231150
     0.05000000       0.99946784982492  -0.02657797994107   0.99982116993561
     0.06000000       0.99920184663145  -0.03188874032453   0.99971056915048
     0.07000000       0.99888271318030  -0.03719654909141   0.99957503868131
     0.08000000       0.99851049107830  -0.04250083296590   0.99941458944535
     0.09000000       0.99808522969244  -0.04780101933743   0.99922923455027
     0.10000000       0.99760698613780  -0.05309653637934   0.99901898929220
     0.11000000       0.99707582526324  -0.05838681316732   0.99878387115342
     0.12000000       0.99649181963518  -0.06367127979758   0.99852389979955
     0.13000000       0.99585504951921  -0.06894936750467   0.99823909707655
     0.14000000       0.99516560285971  -0.07422050877896   0.99792948700724
     0.15000000       0.99442357525740  -0.07948413748367   0.99759509578748
     0.16000000       0.99362906994489  -0.08473968897154   0.99723595178199
     0.17000000       0.99278219776016  -0.08998660020089   0.99685208551981
     0.18000000       0.99188307711808  -0.09522430985130   0.99644352968941
     0.19000000       0.99093183397989  -0.10045225843862   0.99601031913338
     0.20000000       0.98992860182071  -0.10566988842945   0.99555249084284
     0.21000000       0.98887352159504  -0.11087664435491   0.99507008395147
     0.22000000       0.98776674170038  -0.11607197292383   0.99456313972911
     0.23000000       0.98660841793880  -0.12125532313513   0.99403170157511
     0.24000000       0.98539871347662  -0.12642614638956   0.99347581501127
     0.25000000       0.98413779880224  -0.13158389660052   0.99289552767443
     0.26000000       0.98282585168192  -0.13672803030417   0.99229088930875
     0.27000000       0.98146305711383  -0.14185800676864   0.99166195175755
     0.28000000       0.98004960728015  -0.14697328810235   0.99100876895495
     0.29000000       0.97858570149734  -0.15207333936138   0.99033139691699
     0.30000000       0.97707154616458  -0.15715762865591   0.98962989373260
     0.31000000       0.97550735471046  -0.16222562725563   0.98890431955406
     0.32000000       0.97389334753778  -0.16727680969416   0.98815473658725
     0.33000000       0.97222975196670  -0.17231065387237   0.98738120908146
     0.34000000       0.97051680217607  -0.17732664116059   0.98658380331899
     0.35000000       0.96875473914309  -0.18232425649976   0.98576258760433
     0.36000000       0.96694381058124  -0.18730298850130   0.98491763225301
     0.37000000       0.96508427087658  -0.19226232954594   0.98404900958022
     0.38000000       0.96317638102242  -0.19720177588117   0.98315679388902
     0.39000000       0.96122040855227  -0.20212082771755   0.98224106145824
     0.40000000       0.95921662747133  -0.20701898932369   0.98130189053016
     0.41000000       0.95716531818635  -0.21189576911991   0.98033936129776
     0.42000000       0.95506676743395  -0.21675067977059   0.97935355589172
     0.43000000       0.95292126820746  -0.22158323827513   0.97834455836715
     0.44000000       0.95072911968224  -0.22639296605752   0.97731245468994
     0.45000000       0.94849062713959  -0.23117938905446   0.97625733272291
     0.46000000       0.94620610188924  -0.23594203780213   0.97517928221156
     0.47000000       0.94387586119040  -0.24068044752134   0.97407839476964
     0.48000000       0.94150022817151  -0.24539415820133   0.97295476386436
     0.49000000       0.93907953174861  -0.25008271468192   0.97180848480134
     0.50000000       0.93661410654245  -0.25474566673424   0.97063965470930
     0.51000000       0.93410429279431  -0.25938256913977   0.96944837252445
     0.52000000       0.93155043628062  -0.26399298176791   0.96823473897466
     0.53000000       0.92895288822631  -0.26857646965186   0.96699885656327
     0.54000000       0.92631200521710  -0.27313260306290   0.96574082955275
     0.55000000       0.92362814911051  -0.27766095758302   0.96446076394804
     0.56000000       0.92090168694596  -0.28216111417590   0.96315876747964
     0.57000000       0.91813299085360  -0.28663265925617   0.96183494958649
     0.58000000       0.91532243796226  -0.29107518475701   0.96048942139854
     0.59000000       0.91247041030633  -0.29548828819598   0.95912229571916
     0.60000000       0.90957729473171  -0.29987157273920   0.95773368700727
     0.61000000       0.90664348280082  -0.30422464726369   0.95632371135924
     0.62000000       0.90366937069668  -0.30854712641797   0.95489248649056
     0.63000000       0.90065535912624  -0.31283863068096   0.95344013171733
     0.64000000       0.89760185322278  -0.31709878641900   0.95196676793750
     0.65000000       0.89450926244756  -0.32132722594109   0.95047251761189
     0.66000000       0.89137800049079  -0.32552358755237   0.94895750474503
     0.67000000       0.88820848517177  -0.32968751560571   0.94742185486582
     0.68000000       0.88500113833845  -0.33381866055152   0.94586569500789
     0.69000000       0.88175638576633  -0.33791667898569   0.94428915368992
     0.70000000       0.87847465705673  -0.34198123369573   0.94269236089564
     0.71000000       0.87515638553452  -0.34601199370496   0.94107544805373
     0.72000000       0.87180200814533  -0.35000863431496   0.93943854801751
     0.73000000       0.86841196535224  -0.35397083714607   0.93778179504447
     0.74000000       0.86498670103207  -0.35789829017607   0.93610532477563
     0.75000000       0.86152666237116  -0.36179068777692   0.93440927421473
     0.76000000       0.85803229976090  -0.36564773074971   0.93269378170726
     0.77000000       0.85450406669279  -0.36946912635767   0.93095898691941
     0.78000000       0.85094241965327  -0.37325458835731   0.92920503081675
     0.79000000       0.84734781801829  -0.37700383702769   0.92743205564287
     0.80000000       0.84372072394755  -0.38071659919781   0.92564020489784
     0.81000000       0.84006160227869  -0.38439260827211   0.92382962331659
     0.82000000       0.83637092042118  -0.38803160425408   0.92200045684705
     0.83000000       0.83264914825019  -0.39163333376803   0.92015285262832
     0.84000000       0.82889675800033  -0.39519755007893   0.91828695896862
     0.85000000       0.82511422415929  -0.39872401311047   0.91640292532319
     0.86000000       0.82130202336160  -0.40221248946111   0.91450090227203
     0.87000000       0.81746063428225  -0.40566275241846   0.91258104149761
     0.88000000       0.81359053753047  -0.40907458197162   0.91064349576241
     0.89000000       0.80969221554360  -0.41244776482179   0.90868841888647
     0.90000000       0.80576615248098  -0.41578209439103   0.90671596572476
     0.91000000       0.80181283411815  -0.41907737082910   0.90472629214454
     0.92000000       0.79783274774115  -0.42233340101861   0.90271955500263
     0.93000000       0.79382638204104  -0.42554999857826   0.90069591212258
     0.94000000       0.78979422700873  -0.42872698386427   0.89865552227184
     0.95000000       0.78573677383010  -0.43186418397012   0.89659854513885
     0.96000000       0.78165451478139  -0.43496143272439   0.89452514131006
     0.97000000       0.77754794312505  -0.43801857068691   0.89243547224693
     0.98000000       0.77341755300587  -0.44103544514310   0.89032970026286
     0.99000000       0.76926383934763  -0.44401191009662   0.88820798850016
     1.00000000       0.76508729775014  -0.44694782626025   0.88607050090688
     1.01000000       0.76088842438683  -0.44984306104509   0.88391740221374
     1.02000000       0.75666771590279  -0.45269748854802   0.88174885791093
     1.03000000       0.75242566931340  -0.45551098953751   0.87956503422497
     1.04000000       0.74816278190355  -0.45828345143777   0.87736609809553
     1.05000000       0.74387955112742  -0.46101476831118   0.87515221715228
     1.06000000       0.73957647450895  -0.46370484083923   0.87292355969170
     1.07000000       0.73525404954292  -0.46635357630168   0.87068029465392
     1.08000000       0.73091277359679  -0.46896088855425   0.86842259159959
     1.09000000       0.72655314381319  -0.47152669800465   0.86615062068672
     1.10000000       0.72217565701321  -0.47405093158712   0.86386455264762
     1.11000000       0.71778080960043  -0.47653352273539   0.86156455876577
     1.12000000       0.71336909746580  -0.47897441135414   0.85925081085282
     1.13000000       0.70894101589326  -0.48137354378897   0.85692348122555
     1.14000000       0.70449705946629  -0.48373087279484   0.85458274268295
     1.15000000       0.70003772197530  -0.48604635750318   0.85222876848325
     1.16000000       0.69556349632593  -0.48831996338743   0.84986173232112
     1.17000000       0.69107487444824  -0.49055166222727   0.84748180830481
     1.18000000       0.68657234720690  -0.49274143207143   0.84508917093346
     1.19000000       0.68205640431230  -0.49488925719912   0.84268399507438
     1.20000000       0.67752753423265  -0.49699512808017   0.84026645594049
     1.21000000       0.67298622410713  -0.49905904133381   0.83783672906777
     1.22000000       0.66843295966002  -0.50108099968620   0.83539499029284
     1.23000000       0.66386822511590  -0.50306101192667   0.83294141573056
     1.24000000       0.65929250311594  -0.50499909286272   0.83047618175180
     1.25000000       0.65470627463522  -0.50689526327382   0.82799946496128
     1.26000000       0.65011001890121  -0.50874954986403   0.82551144217544
     1.27000000       0.64550421331336  -0.51056198521340   0.82301229040054
     1.28000000       0.64088933336378  -0.51233260772833   0.82050218681073
     1.29000000       0.63626585255918  -0.51406146159073   0.81798130872634
     1.30000000       0.63163424234383  -0.51574859670616   0.81544983359226
     1.31000000       0.62699497202388  -0.51739406865084   0.81290793895637
     1.32000000       0.62234850869271  -0.51899793861772   0.81035580244821
     1.33000000       0.61769531715763  -0.52056027336147   0.80779360175768
     1.34000000       0.61303585986773  -0.52208114514255   0.80522151461391
     1.35000000       0.60837059684296  -0.52356063167029   0.80263971876431
     1.36000000       0.60369998560454  -0.52499881604505   0.80004839195365
     1.37000000       0.59902448110656  -0.52639578669954   0.79744771190342
     1.38000000       0.59434453566884  -0.52775163733919   0.79483785629120
     1.39000000       0.58966059891116  -0.52906646688175   0.79221900273031
     1.40000000       0.58497311768869  -0.53034037939605   0.78959132874948
     1.41000000       0.58028253602878  -0.53157348403998   0.78695501177284
     1.42000000       0.57558929506902  -0.53276589499770   0.78431022909991
     1.43000000       0.57089383299665  -0.53391773141617   0.78165715788586
     1.44000000       0.56619658498925  -0.53502911734091   0.77899597512188
     1.45000000       0.56149798315681  -0.53610018165116   0.77632685761577
     1.46000000       0.55679845648512  -0.53713105799434   0.77364998197268
     1.47000000       0.55209843078045  -0.53812188471992   0.77096552457600
     1.48000000       0.54739832861566  -0.53907280481270   0.76827366156849
     1.49000000       0.54269856927761  -0.53998396582555   0.76557456883354
     1.50000000       0.53799956871589  -0.54085551981156   0.76286842197663
     1.51000000       0.53330173949300  -0.54168762325572   0.76015539630703
     1.52000000       0.52860549073577  -0.54248043700618   0.75743566681958
     1.53000000       0.52391122808827  -0.54323412620490   0.75470940817679
     1.54000000       0.51921935366594  -0.54394886021809   0.75197679469105
     1.55000000       0.51453026601120  -0.54462481256605   0.74923800030709
     1.56000000       0.50984436005037  -0.54526216085279   0.74649319858457
     1.57000000       0.50516202705190  -0.54586108669524   0.74374256268099
     1.58000000       0.50048365458608  -0.54642177565213   0.74098626533470
     1.59000000       0.49580962648600  -0.54694441715265   0.73822447884817
     1.60000000       0.49114032280992  -0.54742920442477   0.73545737507143
     1.61000000       0.48647611980493  -0.54787633442337   0.73268512538583
     1.62000000       0.48181738987210  -0.54828600775815   0.72990790068785
     1.63000000       0.47716450153279  -0.54865842862136   0.72712587137324
     1.64000000       0.47251781939645  -0.54899380471534   0.72433920732140
     1.65000000       0.46787770412966  -0.54929234717998   0.72154807787987
     1.66000000       0.46324451242659  -0.54955427052002   0.71875265184912
     1.67000000       0.45861859698070  -0.54977979253230   0.71595309746757
     1.68000000       0.45400030645781  -0.54996913423292   0.71314958239678
     1.69000000       0.44938998547050  -0.55012251978441   0.71034227370693
     1.70000000       0.44478797455374  -0.55024017642283   0.70753133786246
     1.71000000       0.44019461014191  -0.55032233438493   0.70471694070802
     1.72000000       0.43561022454707  -0.55036922683534   0.70189924745456
     1.73000000       0.43103514593848  -0.55038108979376   0.69907842266571
     1.74000000       0.42646969832346  -0.55035816206235   0.69625463024439
     1.75000000       0.42191420152949  -0.55030068515309   0.69342803341964
     1.76000000       0.41736897118754  -0.55020890321536   0.69059879473367
     1.77000000       0.41283431871667  -0.55008306296363   0.68776707602917
     1.78000000       0.40831055130988  -0.54992341360534   0.68493303843684
     1.79000000       0.40379797192116  -0.54973020676892   0.68209684236319
     1.80000000       0.39929687925374  -0.54950369643211   0.67925864747850
     1.81000000       0.39480756774963  -0.54924413885041   0.67641861270511
     1.82000000       0.39033032758021  -0.54895179248589   0.67357689620588
     1.83000000       0.38586544463817  -0.54862691793614   0.67073365537292
     1.84000000       0.38141320053042  -0.54826977786367   0.66788904681656
     1.85000000       0.37697387257237  -0.54788063692546   0.66504322635453
     1.86000000       0.37254773378316  -0.54745976170296   0.66219634900143
     1.87000000       0.36813505288217  -0.54700742063240   0.65934856895838
     1.88000000       0.36373609428652  -0.54652388393540   0.65650003960293
     1.89000000       0.35935111810980  -0.54600942355010   0.65365091347926
     1.90000000       0.35498038016175  -0.54546431306252   0.65080134228853
     1.91000000       0.35062413194914  -0.54488882763852   0.64795147687954
     1.92000000       0.34628262067763  -0.54428324395602   0.64510146723958
     1.93000000       0.34195608925472  -0.54364784013777   0.64225146248556
     1.94000000       0.33764477629367  -0.54298289568460   0.63940161085536
     1.95000000       0.33334891611854  -0.54228869140904   0.63655205969939
     1.96000000       0.32906873877010  -0.54156550936958   0.63370295547242
     1.97000000       0.32480447001287  -0.54081363280531   0.63085444372566
     1.98000000       0.32055633134297  -0.54003334607113   0.62800666909902
     1.99000000       0.31632453999706  -0.53922493457355   0.62515977531364
     2.00000000       0.31210930896215  -0.53838868470697   0.62231390516469
     2.01000000       0.30791084698635  -0.53752488379049   0.61946920051431
     2.02000000       0.30372935859050  -0.53663382000545   0.61662580228485
     2.03000000       0.29956504408075  -0.53571578233335   0.61378385045237
     2.04000000       0.29541809956193  -0.53477106049454   0.61094348404025
     2.05000000       0.29128871695186  -0.53379994488741   0.60810484111316
     2.06000000       0.28717708399645  -0.53280272652825   0.60526805877119
     2.07000000       0.28308338428559  -0.53177969699175   0.60243327314419
     2.08000000       0.27900779726998  -0.53073114835207   0.59960061938640
     2.09000000       0.27495049827858  -0.52965737312467   0.59677023167126
     2.10000000       0.27091165853695  -0.52855866420869   0.59394224318642
     2.11000000       0.26689144518630  -0.52743531483005   0.59111678612902
     2.12000000       0.26289002130330  -0.52628761848523   0.58829399170117
     2.13000000       0.25890754592059  -0.52511586888572   0.58547399010565
     2.14000000       0.25494417404801  -0.52392035990317   0.58265691054178
     2.15000000       0.25100005669451  -0.52270138551521   0.57984288120160
     2.16000000       0.24707534089075  -0.52145923975204   0.57703202926619
     2.17000000       0.24317016971230  -0.52019421664363   0.57422448090219
     2.18000000       0.23928468230357  -0.51890661016774   0.57142036125859
     2.19000000       0.23541901390224  -0.51759671419862   0.56861979446368
     2.20000000       0.23157329586444  -0.51626482245642   0.56582290362222
     2.21000000       0.22774765569034  -0.51491122845735   0.56302981081281
     2.22000000       0.22394221705049  -0.51353622546460   0.56024063708545
     2.23000000       0.22015709981254  -0.51214010643997   0.55745550245936
     2.24000000       0.21639242006866  -0.51072316399626   0.55467452592085
     2.25000000       0.21264829016334  -0.50928569035042   0.55189782542160
     2.26000000       0.20892481872176  -0.50782797727741   0.54912551787691
     2.27000000       0.20522211067866  -0.50635031606488   0.54635771916429
     2.28000000       0.20154026730762  -0.50485299746858   0.54359454412221
     2.29000000       0.19787938625085  -0.50333631166849   0.54083610654897
     2.30000000       0.19423956154935  -0.50180054822577   0.53808251920181
     2.31000000       0.19062088367358  -0.50024599604045   0.53533389379620
     2.32000000       0.18702343955445  -0.49867294330990   0.53259034100530
     2.33000000       0.18344731261472  -0.49708167748803   0.52985197045956
     2.34000000       0.17989258280080  -0.49547248524527   0.52711889074655
     2.35000000       0.17635932661489  -0.49384565242937   0.52439120941092
     2.36000000       0.17284761714742  -0.49220146402687   0.52166903295455
     2.37000000       0.16935752410987  -0.49054020412542   0.51895246683684
     2.38000000       0.16588911386788  -0.48886215587682   0.51624161547516
     2.39000000       0.16244244947463  -0.48716760146082   0.51353658224552
     2.40000000       0.15901759070454  -0.48545682204975   0.51083746948332
     2.41000000       0.15561459408718  -0.48373009777381   0.50814437848428
     2.42000000       0.15223351294148  -0.48198770768718   0.50545740950554
     2.43000000       0.14887439741016  -0.48022992973492   0.50277666176687
     2.44000000       0.14553729449431  -0.47845704072052   0.50010223345208
     2.45000000       0.14222224808831  -0.47666931627434   0.49743422171051
     2.46000000       0.13892929901481  -0.47486703082266   0.49477272265867
     2.47000000       0.13565848505998  -0.47305045755759   0.49211783138209
     2.48000000       0.13240984100884  -0.47121986840766   0.48946964193719
     2.49000000       0.12918339868080  -0.46937553400918   0.48682824735334
     2.50000000       0.12597918696533  -0.46751772367833   0.48419373963509
     2.51000000       0.12279723185771  -0.46564670538395   0.48156620976439
     2.52000000       0.11963755649494  -0.46376274572113   0.47894574770310
     2.53000000       0.11650018119172  -0.46186610988546   0.47633244239546
     2.54000000       0.11338512347648  -0.45995706164800   0.47372638177079
     2.55000000       0.11029239812758  -0.45803586333106   0.47112765274622
     2.56000000       0.10722201720945  -0.45610277578452   0.46853634122959
     2.57000000       0.10417399010885  -0.45415805836304   0.46595253212241
