#    time[fs]         Re(autocorrel)     Im(autocorrel)     Abs(autocorrel)
     0.00000000       1.00000000000000   0.00000000000000   1.00000000000000
     0.01000000       0.99997338419814  -0.00531734023654   0.99998752152808
     0.02000000       0.99989354068906  -0.01063410550831   0.99995008721019
     0.03000000       0.99976048116119  -0.01594972096991   0.99988770033973
     0.04000000       0.99957422509179  -0.02126361201466   0.99980036640510
     0.05000000       0.99933479974172  -0.02657520439388   0.99968809308874
     0.06000000       0.99904224014817  -0.03188392433600   0.99955089026590
     0.07000000       0.99869658911527  -0.03718919866554   0.99938877000287
     0.08000000       0.99829789720265  -0.04249045492192   0.99920174655507
     0.09000000       0.99784622271196  -0.04778712147797   0.99898983636456
     0.10000000       0.99734163167127  -0.05307862765816   0.99875305805729
     0.11000000       0.99678419781744  -0.05836440385660   0.99849143244000
     0.12000000       0.99617400257643  -0.06364388165456   0.99820498249668
     0.13000000       0.99551113504160  -0.06891649393766   0.99789373338471
     0.14000000       0.99479569194995  -0.07418167501262   0.99755771243064
     0.15000000       0.99402777765631  -0.07943886072348   0.99719694912559
     0.16000000       0.99320750410557  -0.08468748856739   0.99681147512028
     0.17000000       0.99233499080291  -0.08992699780975   0.99640132421975
     0.18000000       0.99141036478194  -0.09515682959883   0.99596653237765
     0.19000000       0.99043376057104  -0.10037642707973   0.99550713769022
     0.20000000       0.98940532015753  -0.10558523550763   0.99502318038990
     0.21000000       0.98832519295010  -0.11078270236044   0.99451470283859
     0.22000000       0.98719353573912  -0.11596827745057   0.99398174952056
     0.23000000       0.98601051265517  -0.12114141303605   0.99342436703499
     0.24000000       0.98477629512560  -0.12630156393074   0.99284260408821
     0.25000000       0.98349106182922  -0.13144818761371   0.99223651148550
     0.26000000       0.98215499864916  -0.13658074433779   0.99160614212266
     0.27000000       0.98076829862380  -0.14169869723709   0.99095155097720
     0.28000000       0.97933116189599  -0.14680151243367   0.99027279509909
     0.29000000       0.97784379566038  -0.15188865914314   0.98956993360136
     0.30000000       0.97630641410897  -0.15695960977928   0.98884302765018
     0.31000000       0.97471923837496  -0.16201384005758   0.98809214045476
     0.32000000       0.97308249647481  -0.16705082909768   0.98731733725681
     0.33000000       0.97139642324855  -0.17207005952475   0.98651868531971
     0.34000000       0.96966126029852  -0.17707101756959   0.98569625391742
     0.35000000       0.96787725592629  -0.18205319316769   0.98485011432297
     0.36000000       0.96604466506807  -0.18701608005695   0.98398033979665
     0.37000000       0.96416374922839  -0.19195917587424   0.98308700557400
     0.38000000       0.96223477641228  -0.19688198225063   0.98217018885330
     0.39000000       0.96025802105585  -0.20178400490534   0.98122996878292
     0.40000000       0.95823376395532  -0.20666475373835   0.98026642644830
     0.41000000       0.95616229219454  -0.21152374292165   0.97927964485856
     0.42000000       0.95404389907108  -0.21636049098911   0.97826970893297
     0.43000000       0.95187888402082  -0.22117452092490   0.97723670548699
     0.44000000       0.94966755254110  -0.22596536025054   0.97618072321807
     0.45000000       0.94741021611256  -0.23073254111042   0.97510185269115
     0.46000000       0.94510719211955  -0.23547560035585   0.97400018632393
     0.47000000       0.94275880376924  -0.24019407962763   0.97287581837178
     0.48000000       0.94036538000938  -0.24488752543702   0.97172884491243
     0.49000000       0.93792725544490  -0.24955548924523   0.97055936383038
     0.50000000       0.93544477025318  -0.25419752754126   0.96936747480102
     0.51000000       0.93291827009812  -0.25881320191821   0.96815327927453
     0.52000000       0.93034810604314  -0.26340207914788   0.96691688045948
     0.53000000       0.92773463446293  -0.26796373125383   0.96565838330620
     0.54000000       0.92507821695412  -0.27249773558273   0.96437789448988
     0.55000000       0.92237922024500  -0.27700367487400   0.96307552239348
     0.56000000       0.91963801610400  -0.28148113732787   0.96175137709030
     0.57000000       0.91685498124737  -0.28592971667159   0.96040557032642
     0.58000000       0.91403049724578  -0.29034901222403   0.95903821550282
     0.59000000       0.91116495043001  -0.29473862895850   0.95764942765736
     0.60000000       0.90825873179580  -0.29909817756377   0.95623932344643
     0.61000000       0.90531223690776  -0.30342727450342   0.95480802112650
     0.62000000       0.90232586580251  -0.30772554207335   0.95335564053536
     0.63000000       0.89930002289105  -0.31199260845747   0.95188230307320
     0.64000000       0.89623511686034  -0.31622810778169   0.95038813168350
     0.65000000       0.89313156057415  -0.32043168016599   0.94887325083365
     0.66000000       0.88998977097332  -0.32460297177476   0.94733778649548
     0.67000000       0.88681016897528  -0.32874163486522   0.94578186612549
     0.68000000       0.88359317937300  -0.33284732783409   0.94420561864500
     0.69000000       0.88033923073344  -0.33691971526238   0.94260917442004
     0.70000000       0.87704875529535  -0.34095846795831   0.94099266524113
     0.71000000       0.87372218886664  -0.34496326299840   0.93935622430280
     0.72000000       0.87035997072134  -0.34893378376670   0.93769998618310
     0.73000000       0.86696254349600  -0.35286971999215   0.93602408682276
     0.74000000       0.86353035308587  -0.35677076778408   0.93432866350437
     0.75000000       0.86006384854063  -0.36063662966584   0.93261385483127
     0.76000000       0.85656348195979  -0.36446701460651   0.93087980070644
     0.77000000       0.85302970838793  -0.36826163805087   0.92912664231111
     0.78000000       0.84946298570958  -0.37202022194732   0.92735452208331
     0.79000000       0.84586377454395  -0.37574249477411   0.92556358369634
     0.80000000       0.84223253813951  -0.37942819156356   0.92375397203699
     0.81000000       0.83856974226843  -0.38307705392447   0.92192583318377
     0.82000000       0.83487585512089  -0.38668883006270   0.92007931438495
     0.83000000       0.83115134719936  -0.39026327479983   0.91821456403653
     0.84000000       0.82739669121290  -0.39380014958999   0.91633173166007
     0.85000000       0.82361236197138  -0.39729922253488   0.91443096788051
     0.86000000       0.81979883627983  -0.40076026839683   0.91251242440378
     0.87000000       0.81595659283282  -0.40418306861020   0.91057625399441
     0.88000000       0.81208611210899  -0.40756741129076   0.90862261045307
     0.89000000       0.80818787626574  -0.41091309124341   0.90665164859395
     0.90000000       0.80426236903401  -0.41421990996796   0.90466352422216
     0.91000000       0.80031007561344  -0.41748767566322   0.90265839411101
     0.92000000       0.79633148256765  -0.42071620322920   0.90063641597927
     0.93000000       0.79232707771987  -0.42390531426758   0.89859774846836
     0.94000000       0.78829735004884  -0.42705483708038   0.89654255111945
     0.95000000       0.78424278958513  -0.43016460666694   0.89447098435064
     0.96000000       0.78016388730779  -0.43323446471904   0.89238320943393
     0.97000000       0.77606113504142  -0.43626425961437   0.89027938847232
     0.98000000       0.77193502535369  -0.43925384640827   0.88815968437678
     0.99000000       0.76778605145337  -0.44220308682377   0.88602426084325
     1.00000000       0.76361470708882  -0.44511184923987   0.88387328232959
     1.01000000       0.75942148644702  -0.44798000867824   0.88170691403252
     1.02000000       0.75520688405321  -0.45080744678823   0.87952532186463
     1.03000000       0.75097139467110  -0.45359405183020   0.87732867243126
     1.04000000       0.74671551320367  -0.45633971865730   0.87511713300749
     1.05000000       0.74243973459470  -0.45904434869555   0.87289087151509
     1.06000000       0.73814455373090  -0.46170784992245   0.87065005649951
     1.07000000       0.73383046534481  -0.46433013684390   0.86839485710686
     1.08000000       0.72949796391838  -0.46691113046964   0.86612544306093
     1.09000000       0.72514754358738  -0.46945075828719   0.86384198464026
     1.10000000       0.72077969804653  -0.47194895423419   0.86154465265521
     1.11000000       0.71639492045547  -0.47440565866930   0.85923361842508
     1.12000000       0.71199370334559  -0.47682081834169   0.85690905375530
     1.13000000       0.70757653852764  -0.47919438635895   0.85457113091462
     1.14000000       0.70314391700035  -0.48152632215372   0.85222002261240
     1.15000000       0.69869632885983  -0.48381659144881   0.84985590197594
     1.16000000       0.69423426320999  -0.48606516622099   0.84747894252787
     1.17000000       0.68975820807388  -0.48827202466345   0.84508931816361
     1.18000000       0.68526865030596  -0.49043715114685   0.84268720312889
     1.19000000       0.68076607550546  -0.49256053617914   0.84027277199739
     1.20000000       0.67625096793066  -0.49464217636404   0.83784619964842
     1.21000000       0.67172381041427  -0.49668207435832   0.83540766124470
     1.22000000       0.66718508427980  -0.49868023882776   0.83295733221021
     1.23000000       0.66263526925910  -0.50063668440198   0.83049538820820
     1.24000000       0.65807484341085  -0.50255143162805   0.82802200511920
     1.25000000       0.65350428304026  -0.50442450692295   0.82553735901922
     1.26000000       0.64892406261990  -0.50625594252486   0.82304162615803
     1.27000000       0.64433465471158  -0.50804577644340   0.82053498293752
     1.28000000       0.63973652988947  -0.50979405240876   0.81801760589023
     1.29000000       0.63513015666435  -0.51150081981978   0.81548967165795
     1.30000000       0.63051600140903  -0.51316613369096   0.81295135697049
     1.31000000       0.62589452828501  -0.51479005459856   0.81040283862453
     1.32000000       0.62126619917032  -0.51637264862563   0.80784429346266
     1.33000000       0.61663147358858  -0.51791398730614   0.80527589835247
     1.34000000       0.61199080863933  -0.51941414756822   0.80269783016590
     1.35000000       0.60734465892951  -0.52087321167639   0.80011026575859
     1.36000000       0.60269347650636  -0.52229126717307   0.79751338194952
     1.37000000       0.59803771079140  -0.52366840681914   0.79490735550070
     1.38000000       0.59337780851583  -0.52500472853377   0.79229236309702
     1.39000000       0.58871421365713  -0.52630033533337   0.78966858132634
     1.40000000       0.58404736737700  -0.52755533526989   0.78703618665963
     1.41000000       0.57937770796056  -0.52876984136829   0.78439535543135
     1.42000000       0.57470567075687  -0.52994397156342   0.78174626381999
     1.43000000       0.57003168812081  -0.53107784863608   0.77908908782872
     1.44000000       0.56535618935617  -0.53217160014860   0.77642400326629
     1.45000000       0.56067960066021  -0.53322535837967   0.77375118572808
     1.46000000       0.55600234506939  -0.53423926025861   0.77107081057729
     1.47000000       0.55132484240657  -0.53521344729913   0.76838305292637
     1.48000000       0.54664750922944  -0.53614806553251   0.76568808761858
     1.49000000       0.54197075878040  -0.53704326544023   0.76298608920982
     1.50000000       0.53729500093762  -0.53789920188621   0.76027723195054
     1.51000000       0.53262064216764  -0.53871603404852   0.75756168976792
     1.52000000       0.52794808547914  -0.53949392535069   0.75483963624824
     1.53000000       0.52327773037816  -0.54023304339262   0.75211124461942
     1.54000000       0.51860997282462  -0.54093355988112   0.74937668773375
     1.55000000       0.51394520519022  -0.54159565056004   0.74663613805090
     1.56000000       0.50928381621761  -0.54221949514020   0.74388976762103
     1.57000000       0.50462619098100  -0.54280527722891   0.74113774806816
     1.58000000       0.49997271084803  -0.54335318425925   0.73838025057378
     1.59000000       0.49532375344303  -0.54386340741917   0.73561744586060
     1.60000000       0.49067969261156  -0.54433614158025   0.73284950417657
     1.61000000       0.48604089838636  -0.54477158522639   0.73007659527908
     1.62000000       0.48140773695451  -0.54516994038228   0.72729888841939
     1.63000000       0.47678057062606  -0.54553141254166   0.72451655232728
     1.64000000       0.47215975780384  -0.54585621059563   0.72172975519594
     1.65000000       0.46754565295466  -0.54614454676064   0.71893866466701
     1.66000000       0.46293860658182  -0.54639663650666   0.71614344781594
     1.67000000       0.45833896519883  -0.54661269848506   0.71334427113747
     1.68000000       0.45374707130457  -0.54679295445668   0.71054130053146
     1.69000000       0.44916326335960  -0.54693762921974   0.70773470128881
     1.70000000       0.44458787576383  -0.54704695053789   0.70492463807771
     1.71000000       0.44002123883538  -0.54712114906821   0.70211127493008
     1.72000000       0.43546367879085  -0.54716045828938   0.69929477522823
     1.73000000       0.43091551772666  -0.54716511442985   0.69647530169179
     1.74000000       0.42637707360177  -0.54713535639619   0.69365301636480
     1.75000000       0.42184866022154  -0.54707142570152   0.69082808060313
     1.76000000       0.41733058722292  -0.54697356639418   0.68800065506204
     1.77000000       0.41282316006075  -0.54684202498646   0.68517089968404
     1.78000000       0.40832667999531  -0.54667705038363   0.68233897368693
     1.79000000       0.40384144408106  -0.54647889381318   0.67950503555216
     1.80000000       0.39936774515659  -0.54624780875418   0.67666924301330
     1.81000000       0.39490587183565  -0.54598405086709   0.67383175304486
     1.82000000       0.39045610849947  -0.54568787792368   0.67099272185129
     1.83000000       0.38601873529008  -0.54535954973735   0.66815230485622
     1.84000000       0.38159402810488  -0.54499932809367   0.66531065669194
     1.85000000       0.37718225859225  -0.54460747668140   0.66246793118915
     1.86000000       0.37278369414835  -0.54418426102366   0.65962428136687
     1.87000000       0.36839859791492  -0.54372994840968   0.65677985942268
     1.88000000       0.36402722877822  -0.54324480782676   0.65393481672311
     1.89000000       0.35966984136902  -0.54272910989271   0.65108930379430
     1.90000000       0.35532668606363  -0.54218312678875   0.64824347031296
     1.91000000       0.35099800898601  -0.54160713219274   0.64539746509743
     1.92000000       0.34668405201084  -0.54100140121293   0.64255143609909
     1.93000000       0.34238505276766  -0.54036621032215   0.63970553039397
     1.94000000       0.33810124464594  -0.53970183729251   0.63685989417457
     1.95000000       0.33383285680122  -0.53900856113053   0.63401467274194
     1.96000000       0.32958011416210  -0.53828666201283   0.63117001049798
     1.97000000       0.32534323743827  -0.53753642122232   0.62832605093797
     1.98000000       0.32112244312941  -0.53675812108492   0.62548293664337
     1.99000000       0.31691794353508  -0.53595204490685   0.62264080927477
     2.00000000       0.31272994676544  -0.53511847691245   0.61979980956517
     2.01000000       0.30855865675286  -0.53425770218256   0.61696007731337
     2.02000000       0.30440427326447  -0.53337000659351   0.61412175137771
     2.03000000       0.30026699191547  -0.53245567675672   0.61128496966997
     2.04000000       0.29614700418334  -0.53151499995883   0.60844986914947
     2.05000000       0.29204449742285  -0.53054826410254   0.60561658581745
     2.06000000       0.28795965488188  -0.52955575764796   0.60278525471166
     2.07000000       0.28389265571802  -0.52853776955471   0.59995600990114
     2.08000000       0.27984367501592  -0.52749458922459   0.59712898448127
     2.09000000       0.27581288380544  -0.52642650644490   0.59430431056897
     2.10000000       0.27180044908053  -0.52533381133246   0.59148211929818
     2.11000000       0.26780653381878  -0.52421679427826   0.58866254081554
     2.12000000       0.26383129700174  -0.52307574589280   0.58584570427625
     2.13000000       0.25987489363588  -0.52191095695214   0.58303173784019
     2.14000000       0.25593747477424  -0.52072271834454   0.58022076866822
     2.15000000       0.25201918753875  -0.51951132101794   0.57741292291868
     2.16000000       0.24812017514315  -0.51827705592803   0.57460832574415
     2.17000000       0.24424057691657  -0.51702021398705   0.57180710128833
     2.18000000       0.24038052832767  -0.51574108601336   0.56900937268321
     2.19000000       0.23654016100943  -0.51443996268164   0.56621526204638
     2.20000000       0.23271960278442  -0.51311713447385   0.56342489047858
     2.21000000       0.22891897769073  -0.51177289163099   0.56063837806139
     2.22000000       0.22513840600835  -0.51040752410543   0.55785584385521
     2.23000000       0.22137800428613  -0.50902132151413   0.55507740589732
     2.24000000       0.21763788536920  -0.50761457309252   0.55230318120021
     2.25000000       0.21391815842690  -0.50618756764911   0.54953328575008
     2.26000000       0.21021892898119  -0.50474059352091   0.54676783450550
     2.27000000       0.20654029893552  -0.50327393852949   0.54400694139630
     2.28000000       0.20288236660408  -0.50178788993792   0.54125071932259
     2.29000000       0.19924522674157  -0.50028273440833   0.53849928015400
     2.30000000       0.19562897057330  -0.49875875796030   0.53575273472906
     2.31000000       0.19203368582570  -0.49721624592999   0.53301119285482
     2.32000000       0.18845945675725  -0.49565548292999   0.53027476330653
     2.33000000       0.18490636418970  -0.49407675280995   0.52754355382762
     2.34000000       0.18137448553971  -0.49248033861794   0.52481767112974
     2.35000000       0.17786389485073  -0.49086652256263   0.52209722089300
     2.36000000       0.17437466282530  -0.48923558597607   0.51938230776644
     2.37000000       0.17090685685754  -0.48758780927744   0.51667303536850
     2.38000000       0.16746054106604  -0.48592347193731   0.51396950628782
     2.39000000       0.16403577632691  -0.48424285244286   0.51127182208408
     2.40000000       0.16063262030715  -0.48254622826370   0.50858008328902
     2.41000000       0.15725112749828  -0.48083387581850   0.50589438940763
     2.42000000       0.15389134925010  -0.47910607044236   0.50321483891946
     2.43000000       0.15055333380478  -0.47736308635491   0.50054152928006
     2.44000000       0.14723712633104  -0.47560519662914   0.49787455692259
     2.45000000       0.14394276895864  -0.47383267316101   0.49521401725959
     2.46000000       0.14067030081289  -0.47204578663968   0.49256000468477
     2.47000000       0.13741975804945  -0.47024480651865   0.48991261257507
     2.48000000       0.13419117388920  -0.46843000098744   0.48727193329275
     2.49000000       0.13098457865326  -0.46660163694410   0.48463805818764
     2.50000000       0.12779999979813  -0.46475997996843   0.48201107759953
     2.51000000       0.12463746195094  -0.46290529429588   0.47939108086063
     2.52000000       0.12149698694478  -0.46103784279215   0.47677815629818
     2.53000000       0.11837859385412  -0.45915788692856   0.47417239123717
     2.54000000       0.11528229903028  -0.45726568675806   0.47157387200314
     2.55000000       0.11220811613702  -0.45536150089197   0.46898268392512
     2.56000000       0.10915605618607  -0.45344558647735   0.46639891133866
     2.57000000       0.10612612757277  -0.45151819917516   0.46382263758895
