#    time[fs]         Re(autocorrel)     Im(autocorrel)     Abs(autocorrel)
     0.00000000       1.00000000000000   0.00000000000000   1.00000000000000
     0.01000000       0.99997338419814  -0.00531734023654   0.99998752152808
     0.02000000       0.99989354068906  -0.01063410550831   0.99995008721019
     0.03000000       0.99976048116119  -0.01594972096991   0.99988770033973
     0.04000000       0.99957422509179  -0.02126361201466   0.99980036640510
     0.05000000       0.99933479974173  -0.02657520439388   0.99968809308875
     0.06000000       0.99904224014817  -0.03188392433600   0.99955089026589
     0.07000000       0.99869658911526  -0.03718919866554   0.99938877000287
     0.08000000       0.99829789720265  -0.04249045492193   0.99920174655507
     0.09000000       0.99784622271196  -0.04778712147797   0.99898983636455
     0.10000000       0.99734163167127  -0.05307862765816   0.99875305805729
     0.11000000       0.99678419781744  -0.05836440385660   0.99849143244000
     0.12000000       0.99617400257643  -0.06364388165456   0.99820498249668
     0.13000000       0.99551113504160  -0.06891649393766   0.99789373338471
     0.14000000       0.99479569194995  -0.07418167501262   0.99755771243064
     0.15000000       0.99402777765631  -0.07943886072348   0.99719694912559
     0.16000000       0.99320750410557  -0.08468748856739   0.99681147512028
     0.17000000       0.99233499080291  -0.08992699780975   0.99640132421975
     0.18000000       0.99141036478194  -0.09515682959883   0.99596653237765
     0.19000000       0.99043376057103  -0.10037642707973   0.99550713769022
     0.20000000       0.98940532015753  -0.10558523550763   0.99502318038990
     0.21000000       0.98832519295010  -0.11078270236044   0.99451470283859
     0.22000000       0.98719353573912  -0.11596827745057   0.99398174952056
     0.23000000       0.98601051265517  -0.12114141303605   0.99342436703500
     0.24000000       0.98477629512560  -0.12630156393074   0.99284260408821
     0.25000000       0.98349106182922  -0.13144818761372   0.99223651148549
     0.26000000       0.98215499864916  -0.13658074433779   0.99160614212266
     0.27000000       0.98076829862380  -0.14169869723709   0.99095155097720
     0.28000000       0.97933116189599  -0.14680151243367   0.99027279509909
     0.29000000       0.97784379566038  -0.15188865914314   0.98956993360136
     0.30000000       0.97630641410897  -0.15695960977928   0.98884302765018
     0.31000000       0.97471923837496  -0.16201384005758   0.98809214045476
     0.32000000       0.97308249647480  -0.16705082909769   0.98731733725680
     0.33000000       0.97139642324855  -0.17207005952475   0.98651868531971
     0.34000000       0.96966126029852  -0.17707101756959   0.98569625391742
     0.35000000       0.96787725592629  -0.18205319316769   0.98485011432297
     0.36000000       0.96604466506807  -0.18701608005695   0.98398033979665
     0.37000000       0.96416374922838  -0.19195917587424   0.98308700557400
     0.38000000       0.96223477641228  -0.19688198225063   0.98217018885330
     0.39000000       0.96025802105585  -0.20178400490534   0.98122996878292
     0.40000000       0.95823376395532  -0.20666475373835   0.98026642644829
     0.41000000       0.95616229219454  -0.21152374292165   0.97927964485856
     0.42000000       0.95404389907108  -0.21636049098911   0.97826970893297
     0.43000000       0.95187888402082  -0.22117452092490   0.97723670548699
     0.44000000       0.94966755254109  -0.22596536025054   0.97618072321807
     0.45000000       0.94741021611256  -0.23073254111042   0.97510185269115
     0.46000000       0.94510719211955  -0.23547560035585   0.97400018632393
     0.47000000       0.94275880376924  -0.24019407962763   0.97287581837178
     0.48000000       0.94036538000938  -0.24488752543702   0.97172884491243
     0.49000000       0.93792725544490  -0.24955548924523   0.97055936383038
     0.50000000       0.93544477025318  -0.25419752754126   0.96936747480102
     0.51000000       0.93291827009812  -0.25881320191821   0.96815327927453
     0.52000000       0.93034810604314  -0.26340207914788   0.96691688045948
     0.53000000       0.92773463446292  -0.26796373125383   0.96565838330619
     0.54000000       0.92507821695412  -0.27249773558273   0.96437789448988
     0.55000000       0.92237922024499  -0.27700367487400   0.96307552239348
     0.56000000       0.91963801610400  -0.28148113732787   0.96175137709030
     0.57000000       0.91685498124737  -0.28592971667159   0.96040557032641
     0.58000000       0.91403049724577  -0.29034901222404   0.95903821550282
     0.59000000       0.91116495043001  -0.29473862895850   0.95764942765736
     0.60000000       0.90825873179580  -0.29909817756377   0.95623932344643
     0.61000000       0.90531223690775  -0.30342727450343   0.95480802112650
     0.62000000       0.90232586580251  -0.30772554207335   0.95335564053536
     0.63000000       0.89930002289105  -0.31199260845747   0.95188230307320
     0.64000000       0.89623511686034  -0.31622810778169   0.95038813168350
     0.65000000       0.89313156057415  -0.32043168016600   0.94887325083365
     0.66000000       0.88998977097332  -0.32460297177476   0.94733778649548
     0.67000000       0.88681016897528  -0.32874163486522   0.94578186612549
     0.68000000       0.88359317937300  -0.33284732783409   0.94420561864500
     0.69000000       0.88033923073344  -0.33691971526238   0.94260917442004
     0.70000000       0.87704875529535  -0.34095846795831   0.94099266524113
     0.71000000       0.87372218886664  -0.34496326299840   0.93935622430280
     0.72000000       0.87035997072133  -0.34893378376670   0.93769998618310
     0.73000000       0.86696254349599  -0.35286971999215   0.93602408682276
     0.74000000       0.86353035308587  -0.35677076778409   0.93432866350437
     0.75000000       0.86006384854062  -0.36063662966584   0.93261385483127
     0.76000000       0.85656348195979  -0.36446701460651   0.93087980070644
     0.77000000       0.85302970838793  -0.36826163805087   0.92912664231110
     0.78000000       0.84946298570958  -0.37202022194732   0.92735452208331
     0.79000000       0.84586377454395  -0.37574249477411   0.92556358369634
     0.80000000       0.84223253813951  -0.37942819156356   0.92375397203699
     0.81000000       0.83856974226843  -0.38307705392447   0.92192583318377
     0.82000000       0.83487585512088  -0.38668883006270   0.92007931438495
     0.83000000       0.83115134719935  -0.39026327479983   0.91821456403653
     0.84000000       0.82739669121289  -0.39380014959000   0.91633173166007
     0.85000000       0.82361236197137  -0.39729922253488   0.91443096788051
     0.86000000       0.81979883627982  -0.40076026839684   0.91251242440377
     0.87000000       0.81595659283281  -0.40418306861020   0.91057625399441
     0.88000000       0.81208611210899  -0.40756741129076   0.90862261045307
     0.89000000       0.80818787626573  -0.41091309124341   0.90665164859395
     0.90000000       0.80426236903400  -0.41421990996796   0.90466352422216
     0.91000000       0.80031007561344  -0.41748767566323   0.90265839411101
     0.92000000       0.79633148256765  -0.42071620322921   0.90063641597927
     0.93000000       0.79232707771986  -0.42390531426758   0.89859774846835
     0.94000000       0.78829735004884  -0.42705483708039   0.89654255111945
     0.95000000       0.78424278958513  -0.43016460666694   0.89447098435064
     0.96000000       0.78016388730779  -0.43323446471904   0.89238320943393
     0.97000000       0.77606113504142  -0.43626425961437   0.89027938847232
     0.98000000       0.77193502535369  -0.43925384640828   0.88815968437678
     0.99000000       0.76778605145337  -0.44220308682377   0.88602426084325
     1.00000000       0.76361470708881  -0.44511184923987   0.88387328232958
     1.01000000       0.75942148644701  -0.44798000867824   0.88170691403252
     1.02000000       0.75520688405321  -0.45080744678823   0.87952532186463
     1.03000000       0.75097139467109  -0.45359405183020   0.87732867243126
     1.04000000       0.74671551320367  -0.45633971865730   0.87511713300749
     1.05000000       0.74243973459470  -0.45904434869556   0.87289087151509
     1.06000000       0.73814455373090  -0.46170784992245   0.87065005649951
     1.07000000       0.73383046534480  -0.46433013684390   0.86839485710686
     1.08000000       0.72949796391837  -0.46691113046964   0.86612544306093
     1.09000000       0.72514754358737  -0.46945075828719   0.86384198464026
     1.10000000       0.72077969804652  -0.47194895423419   0.86154465265521
     1.11000000       0.71639492045547  -0.47440565866931   0.85923361842508
     1.12000000       0.71199370334558  -0.47682081834169   0.85690905375530
     1.13000000       0.70757653852763  -0.47919438635896   0.85457113091461
     1.14000000       0.70314391700034  -0.48152632215372   0.85222002261240
     1.15000000       0.69869632885982  -0.48381659144881   0.84985590197594
     1.16000000       0.69423426320999  -0.48606516622099   0.84747894252787
     1.17000000       0.68975820807387  -0.48827202466345   0.84508931816360
     1.18000000       0.68526865030595  -0.49043715114685   0.84268720312888
     1.19000000       0.68076607550545  -0.49256053617914   0.84027277199739
     1.20000000       0.67625096793065  -0.49464217636404   0.83784619964842
     1.21000000       0.67172381041426  -0.49668207435832   0.83540766124470
     1.22000000       0.66718508427980  -0.49868023882776   0.83295733221021
     1.23000000       0.66263526925910  -0.50063668440198   0.83049538820820
     1.24000000       0.65807484341084  -0.50255143162805   0.82802200511919
     1.25000000       0.65350428304025  -0.50442450692295   0.82553735901921
     1.26000000       0.64892406261989  -0.50625594252486   0.82304162615802
     1.27000000       0.64433465471157  -0.50804577644340   0.82053498293751
     1.28000000       0.63973652988947  -0.50979405240877   0.81801760589022
     1.29000000       0.63513015666434  -0.51150081981978   0.81548967165794
     1.30000000       0.63051600140902  -0.51316613369096   0.81295135697048
     1.31000000       0.62589452828500  -0.51479005459856   0.81040283862453
     1.32000000       0.62126619917031  -0.51637264862563   0.80784429346265
     1.33000000       0.61663147358858  -0.51791398730614   0.80527589835247
     1.34000000       0.61199080863932  -0.51941414756822   0.80269783016589
     1.35000000       0.60734465892951  -0.52087321167639   0.80011026575858
     1.36000000       0.60269347650635  -0.52229126717307   0.79751338194952
     1.37000000       0.59803771079139  -0.52366840681914   0.79490735550069
     1.38000000       0.59337780851582  -0.52500472853377   0.79229236309702
     1.39000000       0.58871421365713  -0.52630033533337   0.78966858132634
     1.40000000       0.58404736737700  -0.52755533526989   0.78703618665962
     1.41000000       0.57937770796055  -0.52876984136829   0.78439535543135
     1.42000000       0.57470567075686  -0.52994397156342   0.78174626381998
     1.43000000       0.57003168812080  -0.53107784863608   0.77908908782871
     1.44000000       0.56535618935616  -0.53217160014860   0.77642400326629
     1.45000000       0.56067960066020  -0.53322535837967   0.77375118572808
     1.46000000       0.55600234506938  -0.53423926025861   0.77107081057729
     1.47000000       0.55132484240656  -0.53521344729913   0.76838305292636
     1.48000000       0.54664750922944  -0.53614806553251   0.76568808761858
     1.49000000       0.54197075878039  -0.53704326544023   0.76298608920982
     1.50000000       0.53729500093761  -0.53789920188620   0.76027723195053
     1.51000000       0.53262064216763  -0.53871603404851   0.75756168976791
     1.52000000       0.52794808547913  -0.53949392535069   0.75483963624823
     1.53000000       0.52327773037815  -0.54023304339262   0.75211124461941
     1.54000000       0.51860997282461  -0.54093355988112   0.74937668773375
     1.55000000       0.51394520519021  -0.54159565056004   0.74663613805090
     1.56000000       0.50928381621760  -0.54221949514020   0.74388976762102
     1.57000000       0.50462619098099  -0.54280527722891   0.74113774806815
     1.58000000       0.49997271084802  -0.54335318425925   0.73838025057377
     1.59000000       0.49532375344302  -0.54386340741916   0.73561744586060
     1.60000000       0.49067969261156  -0.54433614158024   0.73284950417657
     1.61000000       0.48604089838635  -0.54477158522639   0.73007659527907
     1.62000000       0.48140773695450  -0.54516994038227   0.72729888841938
     1.63000000       0.47678057062605  -0.54553141254166   0.72451655232728
     1.64000000       0.47215975780383  -0.54585621059562   0.72172975519593
     1.65000000       0.46754565295465  -0.54614454676064   0.71893866466701
     1.66000000       0.46293860658181  -0.54639663650666   0.71614344781593
     1.67000000       0.45833896519882  -0.54661269848506   0.71334427113747
     1.68000000       0.45374707130456  -0.54679295445668   0.71054130053145
     1.69000000       0.44916326335960  -0.54693762921974   0.70773470128880
     1.70000000       0.44458787576382  -0.54704695053788   0.70492463807770
     1.71000000       0.44002123883537  -0.54712114906820   0.70211127493007
     1.72000000       0.43546367879085  -0.54716045828938   0.69929477522823
     1.73000000       0.43091551772666  -0.54716511442985   0.69647530169178
     1.74000000       0.42637707360176  -0.54713535639618   0.69365301636480
     1.75000000       0.42184866022153  -0.54707142570152   0.69082808060312
     1.76000000       0.41733058722292  -0.54697356639417   0.68800065506203
     1.77000000       0.41282316006074  -0.54684202498645   0.68517089968403
     1.78000000       0.40832667999530  -0.54667705038363   0.68233897368693
     1.79000000       0.40384144408105  -0.54647889381317   0.67950503555216
     1.80000000       0.39936774515658  -0.54624780875417   0.67666924301330
     1.81000000       0.39490587183565  -0.54598405086708   0.67383175304486
     1.82000000       0.39045610849946  -0.54568787792368   0.67099272185128
     1.83000000       0.38601873529007  -0.54535954973734   0.66815230485621
     1.84000000       0.38159402810487  -0.54499932809367   0.66531065669193
     1.85000000       0.37718225859224  -0.54460747668139   0.66246793118914
     1.86000000       0.37278369414834  -0.54418426102366   0.65962428136686
     1.87000000       0.36839859791492  -0.54372994840968   0.65677985942267
     1.88000000       0.36402722877821  -0.54324480782675   0.65393481672310
     1.89000000       0.35966984136901  -0.54272910989270   0.65108930379429
     1.90000000       0.35532668606362  -0.54218312678874   0.64824347031295
     1.91000000       0.35099800898600  -0.54160713219273   0.64539746509742
     1.92000000       0.34668405201083  -0.54100140121292   0.64255143609908
     1.93000000       0.34238505276765  -0.54036621032215   0.63970553039396
     1.94000000       0.33810124464593  -0.53970183729251   0.63685989417456
     1.95000000       0.33383285680122  -0.53900856113052   0.63401467274193
     1.96000000       0.32958011416209  -0.53828666201282   0.63117001049797
     1.97000000       0.32534323743826  -0.53753642122231   0.62832605093796
     1.98000000       0.32112244312940  -0.53675812108491   0.62548293664336
     1.99000000       0.31691794353508  -0.53595204490685   0.62264080927476
     2.00000000       0.31272994676543  -0.53511847691245   0.61979980956516
     2.01000000       0.30855865675286  -0.53425770218255   0.61696007731336
     2.02000000       0.30440427326446  -0.53337000659350   0.61412175137770
     2.03000000       0.30026699191546  -0.53245567675671   0.61128496966996
     2.04000000       0.29614700418333  -0.53151499995883   0.60844986914946
     2.05000000       0.29204449742284  -0.53054826410253   0.60561658581744
     2.06000000       0.28795965488188  -0.52955575764795   0.60278525471165
     2.07000000       0.28389265571801  -0.52853776955470   0.59995600990113
     2.08000000       0.27984367501591  -0.52749458922458   0.59712898448126
     2.09000000       0.27581288380543  -0.52642650644489   0.59430431056896
     2.10000000       0.27180044908052  -0.52533381133245   0.59148211929817
     2.11000000       0.26780653381877  -0.52421679427825   0.58866254081552
     2.12000000       0.26383129700173  -0.52307574589279   0.58584570427624
     2.13000000       0.25987489363587  -0.52191095695213   0.58303173784018
     2.14000000       0.25593747477423  -0.52072271834453   0.58022076866821
     2.15000000       0.25201918753874  -0.51951132101793   0.57741292291867
     2.16000000       0.24812017514314  -0.51827705592802   0.57460832574414
     2.17000000       0.24424057691656  -0.51702021398705   0.57180710128832
     2.18000000       0.24038052832766  -0.51574108601335   0.56900937268319
     2.19000000       0.23654016100942  -0.51443996268163   0.56621526204637
     2.20000000       0.23271960278441  -0.51311713447384   0.56342489047856
     2.21000000       0.22891897769072  -0.51177289163098   0.56063837806138
     2.22000000       0.22513840600834  -0.51040752410542   0.55785584385520
     2.23000000       0.22137800428612  -0.50902132151412   0.55507740589731
     2.24000000       0.21763788536919  -0.50761457309251   0.55230318120020
     2.25000000       0.21391815842689  -0.50618756764910   0.54953328575007
     2.26000000       0.21021892898118  -0.50474059352090   0.54676783450549
     2.27000000       0.20654029893551  -0.50327393852948   0.54400694139629
     2.28000000       0.20288236660407  -0.50178788993791   0.54125071932258
     2.29000000       0.19924522674156  -0.50028273440832   0.53849928015399
     2.30000000       0.19562897057329  -0.49875875796029   0.53575273472905
     2.31000000       0.19203368582569  -0.49721624592998   0.53301119285481
     2.32000000       0.18845945675724  -0.49565548292998   0.53027476330652
     2.33000000       0.18490636418969  -0.49407675280994   0.52754355382761
     2.34000000       0.18137448553970  -0.49248033861793   0.52481767112972
     2.35000000       0.17786389485072  -0.49086652256261   0.52209722089299
     2.36000000       0.17437466282529  -0.48923558597606   0.51938230776642
     2.37000000       0.17090685685753  -0.48758780927743   0.51667303536848
     2.38000000       0.16746054106603  -0.48592347193730   0.51396950628780
     2.39000000       0.16403577632690  -0.48424285244285   0.51127182208406
     2.40000000       0.16063262030715  -0.48254622826369   0.50858008328900
     2.41000000       0.15725112749828  -0.48083387581848   0.50589438940762
     2.42000000       0.15389134925010  -0.47910607044235   0.50321483891944
     2.43000000       0.15055333380477  -0.47736308635490   0.50054152928004
     2.44000000       0.14723712633103  -0.47560519662913   0.49787455692258
     2.45000000       0.14394276895863  -0.47383267316099   0.49521401725958
     2.46000000       0.14067030081288  -0.47204578663967   0.49256000468476
     2.47000000       0.13741975804944  -0.47024480651864   0.48991261257506
     2.48000000       0.13419117388919  -0.46843000098742   0.48727193329273
     2.49000000       0.13098457865325  -0.46660163694409   0.48463805818762
     2.50000000       0.12779999979812  -0.46475997996842   0.48201107759952
     2.51000000       0.12463746195093  -0.46290529429586   0.47939108086062
     2.52000000       0.12149698694477  -0.46103784279213   0.47677815629817
     2.53000000       0.11837859385411  -0.45915788692854   0.47417239123716
     2.54000000       0.11528229903028  -0.45726568675805   0.47157387200312
     2.55000000       0.11220811613702  -0.45536150089196   0.46898268392510
     2.56000000       0.10915605618606  -0.45344558647734   0.46639891133864
     2.57000000       0.10612612757276  -0.45151819917514   0.46382263758893
