#    time[fs]         Re(autocorrel)     Im(autocorrel)     Abs(autocorrel)
     0.00000000       1.00000000000000   0.00000000000000   1.00000000000000
     0.01000000       0.99998079607472  -0.00607702677619   0.99999926138606
     0.02000000       0.99992318524552  -0.01215379546071   0.99999704556346
     0.03000000       0.99982717035232  -0.01823004797739   0.99999335258990
     0.04000000       0.99969275612805  -0.02430552628107   0.99998818256153
     0.05000000       0.99951994919833  -0.03037997237311   0.99998153561294
     0.06000000       0.99930875808093  -0.03645312831685   0.99997341191721
     0.07000000       0.99905919318519  -0.04252473625314   0.99996381168582
     0.08000000       0.99877126681115  -0.04859453841581   0.99995273516872
     0.09000000       0.99844499314871  -0.05466227714713   0.99994018265426
     0.10000000       0.99808038827650  -0.06072769491329   0.99992615446924
     0.11000000       0.99767747016068  -0.06679053431983   0.99991065097885
     0.12000000       0.99723625865360  -0.07285053812712   0.99989367258666
     0.13000000       0.99675677549229  -0.07890744926574   0.99987521973465
     0.14000000       0.99623904429682  -0.08496101085192   0.99985529290314
     0.15000000       0.99568309056853  -0.09101096620289   0.99983389261081
     0.16000000       0.99508894168811  -0.09705705885230   0.99981101941468
     0.17000000       0.99445662691350  -0.10309903256555   0.99978667391005
     0.18000000       0.99378617737773  -0.10913663135510   0.99976085673054
     0.19000000       0.99307762608657  -0.11516959949581   0.99973356854803
     0.20000000       0.99233100791602  -0.12119768154019   0.99970481007262
     0.21000000       0.99154635960968  -0.12722062233367   0.99967458205267
     0.22000000       0.99072371977603  -0.13323816702983   0.99964288527470
     0.23000000       0.98986312888549  -0.13925006110558   0.99960972056342
     0.24000000       0.98896462926735  -0.14525605037636   0.99957508878165
     0.25000000       0.98802826510666  -0.15125588101123   0.99953899083035
     0.26000000       0.98705408244084  -0.15724929954801   0.99950142764854
     0.27000000       0.98604212915624  -0.16323605290832   0.99946240021327
     0.28000000       0.98499245498457  -0.16921588841265   0.99942190953962
     0.29000000       0.98390511149912  -0.17518855379529   0.99937995668063
     0.30000000       0.98278015211091  -0.18115379721935   0.99933654272729
     0.31000000       0.98161763206470  -0.18711136729162   0.99929166880848
     0.32000000       0.98041760843480  -0.19306101307749   0.99924533609095
     0.33000000       0.97918014012083  -0.19900248411575   0.99919754577925
     0.34000000       0.97790528784328  -0.20493553043335   0.99914829911573
     0.35000000       0.97659311413900  -0.21085990256021   0.99909759738046
     0.36000000       0.97524368335644  -0.21677535154383   0.99904544189120
     0.37000000       0.97385706165092  -0.22268162896401   0.99899183400337
     0.38000000       0.97243331697961  -0.22857848694736   0.99893677510997
     0.39000000       0.97097251909649  -0.23446567818193   0.99888026664155
     0.40000000       0.96947473954714  -0.24034295593160   0.99882231006618
     0.41000000       0.96794005166335  -0.24621007405061   0.99876290688934
     0.42000000       0.96636853055768  -0.25206678699788   0.99870205865395
     0.43000000       0.96476025311784  -0.25791284985135   0.99863976694024
     0.44000000       0.96311529800099  -0.26374801832223   0.99857603336573
     0.45000000       0.96143374562782  -0.26957204876924   0.99851085958520
     0.46000000       0.95971567817658  -0.27538469821272   0.99844424729058
     0.47000000       0.95796117957699  -0.28118572434872   0.99837619821091
     0.48000000       0.95617033550397  -0.28697488556304   0.99830671411230
     0.49000000       0.95434323337125  -0.29275194094516   0.99823579679785
     0.50000000       0.95247996232491  -0.29851665030214   0.99816344810761
     0.51000000       0.95058061323674  -0.30426877417244   0.99808966991846
     0.52000000       0.94864527869750  -0.31000807383970   0.99801446414411
     0.53000000       0.94667405301006  -0.31573431134637   0.99793783273502
     0.54000000       0.94466703218240  -0.32144724950739   0.99785977767829
     0.55000000       0.94262431392048  -0.32714665192368   0.99778030099764
     0.56000000       0.94054599762108  -0.33283228299564   0.99769940475331
     0.57000000       0.93843218436434  -0.33850390793654   0.99761709104202
     0.58000000       0.93628297690642  -0.34416129278583   0.99753336199686
     0.59000000       0.93409847967179  -0.34980420442240   0.99744821978724
     0.60000000       0.93187879874560  -0.35543241057774   0.99736166661881
     0.61000000       0.92962404186586  -0.36104567984903   0.99727370473339
     0.62000000       0.92733431841545  -0.36664378171212   0.99718433640888
     0.63000000       0.92500973941413  -0.37222648653451   0.99709356395918
     0.64000000       0.92265041751033  -0.37779356558816   0.99700138973414
     0.65000000       0.92025646697292  -0.38334479106225   0.99690781611945
     0.66000000       0.91782800368277  -0.38887993607586   0.99681284553654
     0.67000000       0.91536514512428  -0.39439877469056   0.99671648044257
     0.68000000       0.91286801037679  -0.39990108192294   0.99661872333025
     0.69000000       0.91033672010581  -0.40538663375700   0.99651957672784
     0.70000000       0.90777139655424  -0.41085520715645   0.99641904319900
     0.71000000       0.90517216353343  -0.41630658007704   0.99631712534274
     0.72000000       0.90253914641412  -0.42174053147860   0.99621382579333
     0.73000000       0.89987247211731  -0.42715684133717   0.99610914722016
     0.74000000       0.89717226910504  -0.43255529065694   0.99600309232773
     0.75000000       0.89443866737099  -0.43793566148210   0.99589566385549
     0.76000000       0.89167179843106  -0.44329773690866   0.99578686457777
     0.77000000       0.88887179531382  -0.44864130109608   0.99567669730370
     0.78000000       0.88603879255085  -0.45396613927888   0.99556516487708
     0.79000000       0.88317292616697  -0.45927203777812   0.99545227017632
     0.80000000       0.88027433367044  -0.46455878401280   0.99533801611432
     0.81000000       0.87734315404298  -0.46982616651110   0.99522240563836
     0.82000000       0.87437952772974  -0.47507397492162   0.99510544173003
     0.83000000       0.87138359662917  -0.48030200002445   0.99498712740511
     0.84000000       0.86835550408277  -0.48551003374212   0.99486746571346
     0.85000000       0.86529539486482  -0.49069786915052   0.99474645973893
     0.86000000       0.86220341517193  -0.49586530048967   0.99462411259925
     0.87000000       0.85907971261255  -0.50101212317437   0.99450042744594
     0.88000000       0.85592443619639  -0.50613813380479   0.99437540746415
     0.89000000       0.85273773632374  -0.51124313017691   0.99424905587263
     0.90000000       0.84951976477473  -0.51632691129288   0.99412137592356
     0.91000000       0.84627067469843  -0.52138927737128   0.99399237090245
     0.92000000       0.84299062060198  -0.52643002985724   0.99386204412805
     0.93000000       0.83967975833954  -0.53144897143245   0.99373039895223
     0.94000000       0.83633824510124  -0.53644590602511   0.99359743875985
     0.95000000       0.83296623940194  -0.54142063881974   0.99346316696865
     0.96000000       0.82956390107003  -0.54637297626681   0.99332758702917
     0.97000000       0.82613139123609  -0.55130272609242   0.99319070242457
     0.98000000       0.82266887232145  -0.55620969730768   0.99305251667057
     0.99000000       0.81917650802676  -0.56109370021811   0.99291303331529
     1.00000000       0.81565446332041  -0.56595454643288   0.99277225593917
     1.01000000       0.81210290442686  -0.57079204887394   0.99263018815481
     1.02000000       0.80852199881503  -0.57560602178499   0.99248683360687
     1.03000000       0.80491191518643  -0.58039628074043   0.99234219597194
     1.04000000       0.80127282346340  -0.58516264265410   0.99219627895842
     1.05000000       0.79760489477714  -0.58990492578797   0.99204908630640
     1.06000000       0.79390830145578  -0.59462294976065   0.99190062178751
     1.07000000       0.79018321701232  -0.59931653555583   0.99175088920484
     1.08000000       0.78642981613253  -0.60398550553061   0.99159989239275
     1.09000000       0.78264827466279  -0.60862968342363   0.99144763521680
     1.10000000       0.77883876959783  -0.61324889436319   0.99129412157358
     1.11000000       0.77500147906851  -0.61784296487517   0.99113935539061
     1.12000000       0.77113658232939  -0.62241172289085   0.99098334062617
     1.13000000       0.76724425974639  -0.62695499775464   0.99082608126921
     1.14000000       0.76332469278431  -0.63147262023161   0.99066758133919
     1.15000000       0.75937806399430  -0.63596442251503   0.99050784488595
     1.16000000       0.75540455700130  -0.64043023823363   0.99034687598957
     1.17000000       0.75140435649144  -0.64486990245883   0.99018467876027
     1.18000000       0.74737764819933  -0.64928325171187   0.99002125733820
     1.19000000       0.74332461889538  -0.65367012397075   0.98985661589338
     1.20000000       0.73924545637300  -0.65803035867703   0.98969075862551
     1.21000000       0.73514034943578  -0.66236379674265   0.98952368976386
     1.22000000       0.73100948788466  -0.66667028055641   0.98935541356711
     1.23000000       0.72685306250499  -0.67094965399051   0.98918593432320
     1.24000000       0.72267126505360  -0.67520176240687   0.98901525634922
     1.25000000       0.71846428824582  -0.67942645266335   0.98884338399125
     1.26000000       0.71423232574239  -0.68362357311982   0.98867032162420
     1.27000000       0.70997557213648  -0.68779297364418   0.98849607365170
     1.28000000       0.70569422294050  -0.69193450561811   0.98832064450590
     1.29000000       0.70138847457299  -0.69604802194287   0.98814403864741
     1.30000000       0.69705852434546  -0.70013337704483   0.98796626056504
     1.31000000       0.69270457044915  -0.70419042688094   0.98778731477576
     1.32000000       0.68832681194179  -0.70821902894407   0.98760720582447
     1.33000000       0.68392544873431  -0.71221904226820   0.98742593828391
     1.34000000       0.67950068157758  -0.71619032743349   0.98724351675445
     1.35000000       0.67505271204902  -0.72013274657127   0.98705994586399
     1.36000000       0.67058174253930  -0.72404616336880   0.98687523026780
     1.37000000       0.66608797623888  -0.72793044307398   0.98668937464832
     1.38000000       0.66157161712466  -0.73178545249996   0.98650238371506
     1.39000000       0.65703286994653  -0.73561106002950   0.98631426220444
     1.40000000       0.65247194021389  -0.73940713561935   0.98612501487960
     1.41000000       0.64788903418224  -0.74317355080436   0.98593464653026
     1.42000000       0.64328435883958  -0.74691017870162   0.98574316197260
     1.43000000       0.63865812189302  -0.75061689401428   0.98555056604903
     1.44000000       0.63401053175514  -0.75429357303543   0.98535686362809
     1.45000000       0.62934179753054  -0.75794009365172   0.98516205960428
     1.46000000       0.62465212900222  -0.76155633534693   0.98496615889788
     1.47000000       0.61994173661805  -0.76514217920534   0.98476916645482
     1.48000000       0.61521083147716  -0.76869750791509   0.98457108724646
     1.49000000       0.61045962531637  -0.77222220577122   0.98437192626953
     1.50000000       0.60568833049660  -0.77571615867882   0.98417168854585
     1.51000000       0.60089715998923  -0.77917925415584   0.98397037912225
     1.52000000       0.59608632736253  -0.78261138133592   0.98376800307037
     1.53000000       0.59125604676804  -0.78601243097100   0.98356456548653
     1.54000000       0.58640653292691  -0.78938229543385   0.98336007149150
     1.55000000       0.58153800111634  -0.79272086872047   0.98315452623040
     1.56000000       0.57665066715592  -0.79602804645234   0.98294793487249
     1.57000000       0.57174474739402  -0.79930372587858   0.98274030261104
     1.58000000       0.56682045869417  -0.80254780587794   0.98253163466311
     1.59000000       0.56187801842148  -0.80576018696068   0.98232193626944
     1.60000000       0.55691764442896  -0.80894077127036   0.98211121269425
     1.61000000       0.55193955504399  -0.81208946258544   0.98189946922507
     1.62000000       0.54694396905469  -0.81520616632082   0.98168671117256
     1.63000000       0.54193110569633  -0.81829078952920   0.98147294387036
     1.64000000       0.53690118463774  -0.82134324090233   0.98125817267494
     1.65000000       0.53185442596780  -0.82436343077219   0.98104240296535
     1.66000000       0.52679105018180  -0.82735127111193   0.98082564014313
     1.67000000       0.52171127816798  -0.83030667553683   0.98060788963209
     1.68000000       0.51661533119395  -0.83322955930501   0.98038915687815
     1.69000000       0.51150343089319  -0.83611983931807   0.98016944734917
     1.70000000       0.50637579925158  -0.83897743412163   0.97994876653476
     1.71000000       0.50123265859390  -0.84180226390573   0.97972711994612
     1.72000000       0.49607423157037  -0.84459425050506   0.97950451311586
     1.73000000       0.49090074114323  -0.84735331739915   0.97928095159781
     1.74000000       0.48571241057333  -0.85007938971237   0.97905644096687
     1.75000000       0.48050946340673  -0.85277239421386   0.97883098681880
     1.76000000       0.47529212346132  -0.85543225931731   0.97860459477007
     1.77000000       0.47006061481352  -0.85805891508062   0.97837727045767
     1.78000000       0.46481516178492  -0.86065229320545   0.97814901953892
     1.79000000       0.45955598892902  -0.86321232703667   0.97791984769130
     1.80000000       0.45428332101797  -0.86573895156162   0.97768976061229
     1.81000000       0.44899738302934  -0.86823210340937   0.97745876401916
     1.82000000       0.44369840013292  -0.87069172084976   0.97722686364878
     1.83000000       0.43838659767758  -0.87311774379233   0.97699406525748
     1.84000000       0.43306220117810  -0.87551011378522   0.97676037462083
     1.85000000       0.42772543630210  -0.87786877401387   0.97652579753350
     1.86000000       0.42237652885698  -0.88019366929962   0.97629033980902
     1.87000000       0.41701570477689  -0.88248474609823   0.97605400727963
     1.88000000       0.41164319010977  -0.88474195249823   0.97581680579611
     1.89000000       0.40625921100434  -0.88696523821923   0.97557874122756
     1.90000000       0.40086399369727  -0.88915455461005   0.97533981946126
     1.91000000       0.39545776450027  -0.89130985464677   0.97510004640241
     1.92000000       0.39004074978729  -0.89343109293066   0.97485942797406
     1.93000000       0.38461317598170  -0.89551822568602   0.97461797011679
     1.94000000       0.37917526954362  -0.89757121075787   0.97437567878864
     1.95000000       0.37372725695718  -0.89959000760955   0.97413255996486
     1.96000000       0.36826936471788  -0.90157457732023   0.97388861963772
     1.97000000       0.36280181932002  -0.90352488258230   0.97364386381637
     1.98000000       0.35732484724413  -0.90544088769862   0.97339829852661
     1.99000000       0.35183867494447  -0.90732255857969   0.97315192981069
     2.00000000       0.34634352883660  -0.90916986274077   0.97290476372720
     2.01000000       0.34083963528499  -0.91098276929877   0.97265680635076
     2.02000000       0.33532722059061  -0.91276124896915   0.97240806377196
     2.03000000       0.32980651097872  -0.91450527406263   0.97215854209708
     2.04000000       0.32427773258660  -0.91621481848187   0.97190824744791
     2.05000000       0.31874111145135  -0.91788985771802   0.97165718596162
     2.06000000       0.31319687349778  -0.91953036884714   0.97140536379050
     2.07000000       0.30764524452636  -0.92113633052655   0.97115278710180
     2.08000000       0.30208645020115  -0.92270772299105   0.97089946207754
     2.09000000       0.29652071603791  -0.92424452804913   0.97064539491432
     2.10000000       0.29094826739217  -0.92574672907892   0.97039059182312
     2.11000000       0.28536932944743  -0.92721431102423   0.97013505902911
     2.12000000       0.27978412720332  -0.92864726039032   0.96987880277145
     2.13000000       0.27419288546396  -0.93004556523972   0.96962182930311
     2.14000000       0.26859582882630  -0.93140921518782   0.96936414489070
     2.15000000       0.26299318166851  -0.93273820139850   0.96910575581421
     2.16000000       0.25738516813846  -0.93403251657957   0.96884666836689
     2.17000000       0.25177201214230  -0.93529215497813   0.96858688885501
     2.18000000       0.24615393733306  -0.93651711237589   0.96832642359767
     2.19000000       0.24053116709931  -0.93770738608434   0.96806527892663
     2.20000000       0.23490392455393  -0.93886297493988   0.96780346118610
     2.21000000       0.22927243252293  -0.93998387929879   0.96754097673255
     2.22000000       0.22363691353430  -0.94107010103221   0.96727783193451
     2.23000000       0.21799758980701  -0.94212164352096   0.96701403317237
     2.24000000       0.21235468324001  -0.94313851165026   0.96674958683820
     2.25000000       0.20670841540132  -0.94412071180446   0.96648449933555
     2.26000000       0.20105900751725  -0.94506825186157   0.96621877707924
     2.27000000       0.19540668046156  -0.94598114118779   0.96595242649520
     2.28000000       0.18975165474486  -0.94685939063190   0.96568545402022
     2.29000000       0.18409415050394  -0.94770301251963   0.96541786610180
     2.30000000       0.17843438749128  -0.94851202064787   0.96514966919794
     2.31000000       0.17277258506454  -0.94928643027887   0.96488086977693
     2.32000000       0.16710896217623  -0.95002625813435   0.96461147431719
     2.33000000       0.16144373736336  -0.95073152238948   0.96434148930701
     2.34000000       0.15577712873725  -0.95140224266682   0.96407092124442
     2.35000000       0.15010935397335  -0.95203844003021   0.96379977663696
     2.36000000       0.14444063030117  -0.95264013697856   0.96352806200148
     2.37000000       0.13877117449429  -0.95320735743952   0.96325578386395
     2.38000000       0.13310120286048  -0.95374012676315   0.96298294875927
     2.39000000       0.12743093123179  -0.95423847171549   0.96270956323105
     2.40000000       0.12176057495488  -0.95470242047204   0.96243563383144
     2.41000000       0.11609034888130  -0.95513200261121   0.96216116712091
     2.42000000       0.11042046735791  -0.95552724910762   0.96188616966808
     2.43000000       0.10475114421736  -0.95588819232548   0.96161064804947
     2.44000000       0.09908259276872  -0.95621486601171   0.96133460884937
     2.45000000       0.09341502578805  -0.95650730528916   0.96105805865958
     2.46000000       0.08774865550923  -0.95676554664968   0.96078100407925
     2.47000000       0.08208369361474  -0.95698962794712   0.96050345171467
     2.48000000       0.07642035122657  -0.95717958839033   0.96022540817908
     2.49000000       0.07075883889723  -0.95733546853604   0.95994688009244
     2.50000000       0.06509936660084  -0.95745731028168   0.95966787408127
     2.51000000       0.05944214372426  -0.95754515685819   0.95938839677844
     2.52000000       0.05378737905842  -0.95759905282268   0.95910845482295
     2.53000000       0.04813528078956  -0.95761904405117   0.95882805485977
     2.54000000       0.04248605649074  -0.95760517773112   0.95854720353960
     2.55000000       0.03683991311333  -0.95755750235400   0.95826590751869
     2.56000000       0.03119705697859  -0.95747606770778   0.95798417345866
     2.57000000       0.02555769376940  -0.95736092486938   0.95770200802628
