#    time[fs]         Re(autocorrel)     Im(autocorrel)     Abs(autocorrel)
     0.00000000       1.00000000000000   0.00000000000000   1.00000000000000
     0.01000000       0.99996468530106  -0.00759621284534   0.99999353712853
     0.02000000       0.99985874548586  -0.01519167934376   0.99997414868878
     0.03000000       0.99968219339863  -0.02278565325281   0.99994183520466
     0.04000000       0.99943505044416  -0.03037738853899   0.99989659754935
     0.05000000       0.99911734658445  -0.03796613948219   0.99983843694525
     0.06000000       0.99872912033401  -0.04555116078002   0.99976735496392
     0.07000000       0.99827041875381  -0.05313170765218   0.99968335352598
     0.08000000       0.99774129744392  -0.06070703594461   0.99958643490109
     0.09000000       0.99714182053474  -0.06827640223360   0.99947660170776
     0.10000000       0.99647206067696  -0.07583906392979   0.99935385691332
     0.11000000       0.99573209903017  -0.08339427938200   0.99921820383371
     0.12000000       0.99492202525010  -0.09094130798085   0.99906964613335
     0.13000000       0.99404193747458  -0.09847941026232   0.99890818782500
     0.14000000       0.99309194230813  -0.10600784801096   0.99873383326953
     0.15000000       0.99207215480527  -0.11352588436300   0.99854658717577
     0.16000000       0.99098269845241  -0.12103278390921   0.99834645460023
     0.17000000       0.98982370514858  -0.12852781279741   0.99813344094693
     0.18000000       0.98859531518468  -0.13601023883485   0.99790755196712
     0.19000000       0.98729767722152  -0.14347933159020   0.99766879375902
     0.20000000       0.98593094826654  -0.15093436249527   0.99741717276755
     0.21000000       0.98449529364918  -0.15837460494642   0.99715269578401
     0.22000000       0.98299088699502  -0.16579933440560   0.99687536994581
     0.23000000       0.98141791019854  -0.17320782850104   0.99658520273609
     0.24000000       0.97977655339472  -0.18059936712760   0.99628220198341
     0.25000000       0.97806701492918  -0.18797323254666   0.99596637586141
     0.26000000       0.97628950132724  -0.19532870948565   0.99563773288839
     0.27000000       0.97444422726156  -0.20266508523716   0.99529628192693
     0.28000000       0.97253141551857  -0.20998164975756   0.99494203218351
     0.29000000       0.97055129696366  -0.21727769576518   0.99457499320809
     0.30000000       0.96850411050507  -0.22455251883806   0.99419517489361
     0.31000000       0.96639010305660  -0.23180541751110   0.99380258747562
     0.32000000       0.96420952949901  -0.23903569337279   0.99339724153176
     0.33000000       0.96196265264024  -0.24624265116140   0.99297914798128
     0.34000000       0.95964974317440  -0.25342559886058   0.99254831808458
     0.35000000       0.95727107963952  -0.26058384779443   0.99210476344264
     0.36000000       0.95482694837414  -0.26771671272199   0.99164849599651
     0.37000000       0.95231764347261  -0.27482351193116   0.99117952802679
     0.38000000       0.94974346673935  -0.28190356733194   0.99069787215304
     0.39000000       0.94710472764175  -0.28895620454915   0.99020354133320
     0.40000000       0.94440174326206  -0.29598075301440   0.98969654886303
     0.41000000       0.94163483824800  -0.30297654605749   0.98917690837547
     0.42000000       0.93880434476227  -0.30994292099709   0.98864463384004
     0.43000000       0.93591060243090  -0.31687921923075   0.98809973956219
     0.44000000       0.93295395829051  -0.32378478632423   0.98754224018264
     0.45000000       0.92993476673434  -0.33065897210003   0.98697215067676
     0.46000000       0.92685338945728  -0.33750113072532   0.98638948635380
     0.47000000       0.92371019539974  -0.34431062079899   0.98579426285630
     0.48000000       0.92050556069040  -0.35108680543805   0.98518649615930
     0.49000000       0.91723986858796  -0.35782905236315   0.98456620256962
     0.50000000       0.91391350942174  -0.36453673398344   0.98393339872517
     0.51000000       0.91052688053124  -0.37120922748046   0.98328810159413
     0.52000000       0.90708038620471  -0.37784591489139   0.98263032847424
     0.53000000       0.90357443761654  -0.38444618319133   0.98196009699195
     0.54000000       0.90000945276383  -0.39100942437481   0.98127742510167
     0.55000000       0.89638585640172  -0.39753503553640   0.98058233108494
     0.56000000       0.89270407997793  -0.40402241895051   0.97987483354961
     0.57000000       0.88896456156614  -0.41047098215020   0.97915495142895
     0.58000000       0.88516774579850  -0.41688013800523   0.97842270398088
     0.59000000       0.88131408379711  -0.42324930479907   0.97767811078700
     0.60000000       0.87740403310464  -0.42957790630508   0.97692119175179
     0.61000000       0.87343805761387  -0.43586537186169   0.97615196710165
     0.62000000       0.86941662749645  -0.44211113644670   0.97537045738402
     0.63000000       0.86534021913065  -0.44831464075056   0.97457668346641
     0.64000000       0.86120931502825  -0.45447533124872   0.97377066653554
     0.65000000       0.85702440376056  -0.46059266027295   0.97295242809628
     0.66000000       0.85278597988350  -0.46666608608174   0.97212198997077
     0.67000000       0.84849454386195  -0.47269507292966   0.97127937429737
     0.68000000       0.84415060199311  -0.47867909113566   0.97042460352971
     0.69000000       0.83975466632913  -0.48461761715041   0.96955770043566
     0.70000000       0.83530725459890  -0.49051013362259   0.96867868809631
     0.71000000       0.83080889012902  -0.49635612946409   0.96778758990493
     0.72000000       0.82626010176403  -0.50215509991422   0.96688442956590
     0.73000000       0.82166142378581  -0.50790654660282   0.96596923109369
     0.74000000       0.81701339583229  -0.51360997761225   0.96504201881175
     0.75000000       0.81231656281534  -0.51926490753840   0.96410281735144
     0.76000000       0.80757147483802  -0.52487085755050   0.96315165165090
     0.77000000       0.80277868711109  -0.53042735544988   0.96218854695395
     0.78000000       0.79793875986876  -0.53593393572763   0.96121352880898
     0.79000000       0.79305225828389  -0.54139013962109   0.96022662306776
     0.80000000       0.78811975238238  -0.54679551516926   0.95922785588435
     0.81000000       0.78314181695705  -0.55214961726704   0.95821725371386
     0.82000000       0.77811903148078  -0.55745200771834   0.95719484331133
     0.83000000       0.77305198001912  -0.56270225528804   0.95616065173052
     0.84000000       0.76794125114222  -0.56789993575277   0.95511470632269
     0.85000000       0.76278743783621  -0.57304463195057   0.95405703473539
     0.86000000       0.75759113741406  -0.57813593382929   0.95298766491125
     0.87000000       0.75235295142583  -0.58317343849395   0.95190662508673
     0.88000000       0.74707348556836  -0.58815675025271   0.95081394379084
     0.89000000       0.74175334959454  -0.59308548066188   0.94970964984391
     0.90000000       0.73639315722198  -0.59795924856952   0.94859377235631
     0.91000000       0.73099352604124  -0.60277768015801   0.94746634072714
     0.92000000       0.72555507742361  -0.60754040898526   0.94632738464295
     0.93000000       0.72007843642836  -0.61224707602482   0.94517693407640
     0.94000000       0.71456423170968  -0.61689732970471   0.94401501928499
     0.95000000       0.70901309542306  -0.62149082594500   0.94284167080968
     0.96000000       0.70342566313137  -0.62602722819429   0.94165691947355
     0.97000000       0.69780257371050  -0.63050620746475   0.94046079638047
     0.98000000       0.69214446925470  -0.63492744236613   0.93925333291369
     0.99000000       0.68645199498145  -0.63929061913839   0.93803456073450
     1.00000000       0.68072579913614  -0.64359543168311   0.93680451178082
     1.01000000       0.67496653289629  -0.64784158159371   0.93556321826581
     1.02000000       0.66917485027561  -0.65202877818436   0.93431071267645
     1.03000000       0.66335140802764  -0.65615673851766   0.93304702777212
     1.04000000       0.65749686554926  -0.66022518743102   0.93177219658317
     1.05000000       0.65161188478381  -0.66423385756187   0.93048625240948
     1.06000000       0.64569713012412  -0.66818248937151   0.92918922881900
     1.07000000       0.63975326831521  -0.67207083116777   0.92788115964628
     1.08000000       0.63378096835687  -0.67589863912635   0.92656207899105
     1.09000000       0.62778090140599  -0.67966567731092   0.92523202121664
     1.10000000       0.62175374067881  -0.68337171769200   0.92389102094858
     1.11000000       0.61570016135298  -0.68701654016443   0.92253911307304
     1.12000000       0.60962084046945  -0.69059993256376   0.92117633273536
     1.13000000       0.60351645683434  -0.69412169068121   0.91980271533847
     1.14000000       0.59738769092063  -0.69758161827744   0.91841829654142
     1.15000000       0.59123522476984  -0.70097952709504   0.91702311225782
     1.16000000       0.58505974189361  -0.70431523686973   0.91561719865426
     1.17000000       0.57886192717523  -0.70758857534035   0.91420059214880
     1.18000000       0.57264246677121  -0.71079937825747   0.91277332940935
     1.19000000       0.56640204801274  -0.71394748939084   0.91133544735213
     1.20000000       0.56014135930724  -0.71703276053555   0.90988698314010
     1.21000000       0.55386109003989  -0.72005505151688   0.90842797418130
     1.22000000       0.54756193047526  -0.72301423019392   0.90695845812732
     1.23000000       0.54124457165889  -0.72591017246196   0.90547847287165
     1.24000000       0.53490970531908  -0.72874276225357   0.90398805654804
     1.25000000       0.52855802376868  -0.73151189153842   0.90248724752894
     1.26000000       0.52219021980699  -0.73421746032192   0.90097608442380
     1.27000000       0.51580698662185  -0.73685937664254   0.89945460607745
     1.28000000       0.50940901769183  -0.73943755656788   0.89792285156846
     1.29000000       0.50299700668856  -0.74195192418958   0.89638086020746
     1.30000000       0.49657164737926  -0.74440241161686   0.89482867153547
     1.31000000       0.49013363352948  -0.74678895896895   0.89326632532227
     1.32000000       0.48368365880604  -0.74911151436623   0.89169386156464
     1.33000000       0.47722241668014  -0.75137003392010   0.89011132048476
     1.34000000       0.47075060033077  -0.75356448172174   0.88851874252844
     1.35000000       0.46426890254837  -0.75569482982951   0.88691616836346
     1.36000000       0.45777801563877  -0.75776105825527   0.88530363887783
     1.37000000       0.45127863132735  -0.75976315494942   0.88368119517810
     1.38000000       0.44477144066360  -0.76170111578472   0.88204887858761
     1.39000000       0.43825713392592  -0.76357494453898   0.88040673064480
     1.40000000       0.43173640052683  -0.76538465287647   0.87875479310141
     1.41000000       0.42520992891845  -0.76713026032827   0.87709310792080
     1.42000000       0.41867840649844  -0.76881179427129   0.87542171727615
     1.43000000       0.41214251951620  -0.77042928990624   0.87374066354874
     1.44000000       0.40560295297959  -0.77198279023436   0.87204998932618
     1.45000000       0.39906039056201  -0.77347234603303   0.87034973740063
     1.46000000       0.39251551450985  -0.77489801583021   0.86863995076702
     1.47000000       0.38596900555050  -0.77625986587774   0.86692067262130
     1.48000000       0.37942154280073  -0.77755797012350   0.86519194635865
     1.49000000       0.37287380367554  -0.77879241018243   0.86345381557164
     1.50000000       0.36632646379756  -0.77996327530647   0.86170632404852
     1.51000000       0.35978019690688  -0.78107066235331   0.85994951577135
     1.52000000       0.35323567477142  -0.78211467575411   0.85818343491423
     1.53000000       0.34669356709788  -0.78309542748009   0.85640812584145
     1.54000000       0.34015454144310  -0.78401303700800   0.85462363310575
     1.55000000       0.33361926312612  -0.78486763128458   0.85283000144641
     1.56000000       0.32708839514074  -0.78565934468988   0.85102727578749
     1.57000000       0.32056259806865  -0.78638831899958   0.84921550123599
     1.58000000       0.31404252999317  -0.78705470334616   0.84739472307999
     1.59000000       0.30752884641364  -0.78765865417916   0.84556498678684
     1.60000000       0.30102220016038  -0.78820033522430   0.84372633800130
     1.61000000       0.29452324131026  -0.78867991744161   0.84187882254372
     1.62000000       0.28803261710305  -0.78909757898256   0.84002248640817
     1.63000000       0.28155097185824  -0.78945350514615   0.83815737576058
     1.64000000       0.27507894689271  -0.78974788833407   0.83628353693692
     1.65000000       0.26861718043896  -0.78998092800479   0.83440101644131
     1.66000000       0.26216630756411  -0.79015283062674   0.83250986094415
     1.67000000       0.25572696008958  -0.79026380963052   0.83061011728030
     1.68000000       0.24929976651146  -0.79031408536013   0.82870183244716
     1.69000000       0.24288535192172  -0.79030388502328   0.82678505360283
     1.70000000       0.23648433793001  -0.79023344264079   0.82485982806421
     1.71000000       0.23009734258634  -0.79010299899503   0.82292620330516
     1.72000000       0.22372498030447  -0.78991280157747   0.82098422695458
     1.73000000       0.21736786178609  -0.78966310453535   0.81903394679455
     1.74000000       0.21102659394578  -0.78935416861746   0.81707541075846
     1.75000000       0.20470177983676  -0.78898626111903   0.81510866692910
     1.76000000       0.19839401857749  -0.78855965582580   0.81313376353675
     1.77000000       0.19210390527905  -0.78807463295719   0.81115074895735
     1.78000000       0.18583203097332  -0.78753147910867   0.80915967171058
     1.79000000       0.17957898254210  -0.78693048719332   0.80716058045792
     1.80000000       0.17334534264696  -0.78627195638252   0.80515352400085
     1.81000000       0.16713168966002  -0.78555619204593   0.80313855127886
     1.82000000       0.16093859759558  -0.78478350569060   0.80111571136763
     1.83000000       0.15476663604261  -0.78395421489936   0.79908505347705
     1.84000000       0.14861637009816  -0.78306864326844   0.79704662694941
     1.85000000       0.14248836030159  -0.78212712034432   0.79500048125742
     1.86000000       0.13638316256981  -0.78112998155988   0.79294666600237
     1.87000000       0.13030132813332  -0.78007756816980   0.79088523091218
     1.88000000       0.12424340347324  -0.77897022718530   0.78881622583954
     1.89000000       0.11820993025925  -0.77780831130811   0.78673970075996
     1.90000000       0.11220144528841  -0.77659217886383   0.78465570576992
     1.91000000       0.10621848042503  -0.77532219373461   0.78256429108492
     1.92000000       0.10026156254136  -0.77399872529110   0.78046550703762
     1.93000000       0.09433121345934  -0.77262214832393   0.77835940407590
     1.94000000       0.08842794989324  -0.77119284297434   0.77624603276098
     1.95000000       0.08255228339332  -0.76971119466440   0.77412544376551
     1.96000000       0.07670472029042  -0.76817759402651   0.77199768787166
     1.97000000       0.07088576164157  -0.76659243683238   0.76986281596926
     1.98000000       0.06509590317654  -0.76495612392139   0.76772087905384
     1.99000000       0.05933563524544  -0.76326906112840   0.76557192822478
     2.00000000       0.05360544276728  -0.76153165921108   0.76341601468338
     2.01000000       0.04790580517952  -0.75974433377665   0.76125318973100
     2.02000000       0.04223719638870  -0.75790750520810   0.75908350476712
     2.03000000       0.03660008472197  -0.75602159858996   0.75690701128749
     2.04000000       0.03099493287976  -0.75408704363354   0.75472376088222
     2.05000000       0.02542219788939  -0.75210427460175   0.75253380523386
     2.06000000       0.01988233105972  -0.75007373023338   0.75033719611558
     2.07000000       0.01437577793689  -0.74799585366702   0.74813398538921
     2.08000000       0.00890297826100  -0.74587109236453   0.74592422500343
     2.09000000       0.00346436592391  -0.74369989803404   0.74370796699182
     2.10000000      -0.00193963107196  -0.74148272655268   0.74148526347102
     2.11000000      -0.00730859065374  -0.73922003788874   0.73925616663885
     2.12000000      -0.01264209671726  -0.73691229602365   0.73702072877244
     2.13000000      -0.01793973916503  -0.73455996887348   0.73477900222633
     2.14000000      -0.02320111394326  -0.73216352821014   0.73253103943064
     2.15000000      -0.02842582307777  -0.72972344958226   0.73027689288918
     2.16000000      -0.03361347470886  -0.72724021223573   0.72801661517762
     2.17000000      -0.03876368312513  -0.72471429903400   0.72575025894158
     2.18000000      -0.04387606879618  -0.72214619637802   0.72347787689483
     2.19000000      -0.04895025840433  -0.71953639412597   0.72119952181741
     2.20000000      -0.05398588487521  -0.71688538551272   0.71891524655378
     2.21000000      -0.05898258740730  -0.71419366706903   0.71662510401100
     2.22000000      -0.06394001150038  -0.71146173854058   0.71432914715687
     2.23000000      -0.06885780898297  -0.70869010280673   0.71202742901811
     2.24000000      -0.07373563803863  -0.70587926579909   0.70972000267854
     2.25000000      -0.07857316323122  -0.70302973641996   0.70740692127720
     2.26000000      -0.08337005552910  -0.70014202646058   0.70508823800660
     2.27000000      -0.08812599232823  -0.69721665051916   0.70276400611086
     2.28000000      -0.09284065747420  -0.69425412591890   0.70043427888393
     2.29000000      -0.09751374128323  -0.69125497262577   0.69809910966776
     2.30000000      -0.10214494056207  -0.68821971316626   0.69575855185048
     2.31000000      -0.10673395862677  -0.68514887254496   0.69341265886467
     2.32000000      -0.11128050532052  -0.68204297816216   0.69106148418552
     2.33000000      -0.11578429703028  -0.67890255973126   0.68870508132905
     2.34000000      -0.12024505670245  -0.67572814919627   0.68634350385036
     2.35000000      -0.12466251385738  -0.67252028064911   0.68397680534182
     2.36000000      -0.12903640460291  -0.66927949024706   0.68160503943134
     2.37000000      -0.13336647164678  -0.66600631613001   0.67922825978060
     2.38000000      -0.13765246430799  -0.66270129833792   0.67684652008327
     2.39000000      -0.14189413852715  -0.65936497872813   0.67445987406332
     2.40000000      -0.14609125687570  -0.65599790089275   0.67206837547322
     2.41000000      -0.15024358856414  -0.65260061007615   0.66967207809225
     2.42000000      -0.15435090944919  -0.64917365309247   0.66727103572478
     2.43000000      -0.15841300203989  -0.64571757824316   0.66486530219850
     2.44000000      -0.16242965550264  -0.64223293523467   0.66245493136277
     2.45000000      -0.16640066566528  -0.63872027509623   0.66003997708688
     2.46000000      -0.17032583502002  -0.63518015009768   0.65762049325837
     2.47000000      -0.17420497272544  -0.63161311366755   0.65519653378135
     2.48000000      -0.17803789460739  -0.62801972031114   0.65276815257480
     2.49000000      -0.18182442315888  -0.62440052552885   0.65033540357093
     2.50000000      -0.18556438753898  -0.62075608573461   0.64789834071347
     2.51000000      -0.18925762357066  -0.61708695817457   0.64545701795608
     2.52000000      -0.19290397373766  -0.61339370084591   0.64301148926066
     2.53000000      -0.19650328718028  -0.60967687241586   0.64056180859573
     2.54000000      -0.20005541969028  -0.60593703214098   0.63810802993481
     2.55000000      -0.20356023370468  -0.60217473978666   0.63565020725477
     2.56000000      -0.20701759829861  -0.59839055554679   0.63318839453430
     2.57000000      -0.21042738917716  -0.59458503996379   0.63072264575221
