#    time[fs]         Re(autocorrel)     Im(autocorrel)     Abs(autocorrel)
     0.00000000       1.00000000000000   0.00000000000000   1.00000000000000
     0.01000000       0.99996607014588  -0.00759622476802   0.99999492202397
     0.02000000       0.99986428415323  -0.01519177471994   0.99997968816591
     0.03000000       0.99969465273079  -0.02278597511805   0.99995429863600
     0.04000000       0.99945719372494  -0.03037815138140   0.99991875378447
     0.05000000       0.99915193211756  -0.03796762916416   0.99987305410167
     0.06000000       0.99877890002287  -0.04555373443394   0.99981720021801
     0.07000000       0.99833813668351  -0.05313579355008   0.99975119290397
     0.08000000       0.99782968846564  -0.06071313334187   0.99967503307006
     0.09000000       0.99725360885319  -0.06828508118675   0.99958872176681
     0.10000000       0.99660995844129  -0.07585096508836   0.99949226018474
     0.11000000       0.99589880492872  -0.08341011375461   0.99938564965433
     0.12000000       0.99512022310951  -0.09096185667560   0.99926889164598
     0.13000000       0.99427429486373  -0.09850552420138   0.99914198776999
     0.14000000       0.99336110914733  -0.10604044761976   0.99900493977648
     0.15000000       0.99238076198110  -0.11356595923381   0.99885774955540
     0.16000000       0.99133335643881  -0.12108139243939   0.99870041913644
     0.17000000       0.99021900263444  -0.12858608180240   0.99853295068898
     0.18000000       0.98903781770855  -0.13607936313600   0.99835534652206
     0.19000000       0.98778992581376  -0.14356057357755   0.99816760908430
     0.20000000       0.98647545809944  -0.15102905166548   0.99796974096386
     0.21000000       0.98509455269538  -0.15848413741593   0.99776174488832
     0.22000000       0.98364735469480  -0.16592517239916   0.99754362372469
     0.23000000       0.98213401613633  -0.17335149981586   0.99731538047926
     0.24000000       0.98055469598520  -0.18076246457312   0.99707701829757
     0.25000000       0.97890956011361  -0.18815741336029   0.99682854046434
     0.26000000       0.97719878128018  -0.19553569472454   0.99656995040332
     0.27000000       0.97542253910858  -0.20289665914620   0.99630125167729
     0.28000000       0.97358102006534  -0.21023965911383   0.99602244798788
     0.29000000       0.97167441743676  -0.21756404919908   0.99573354317556
     0.30000000       0.96970293130502  -0.22486918613122   0.99543454121949
     0.31000000       0.96766676852345  -0.23215442887139   0.99512544623742
     0.32000000       0.96556614269098  -0.23941913868663   0.99480626248561
     0.33000000       0.96340127412569  -0.24666267922351   0.99447699435871
     0.34000000       0.96117238983762  -0.25388441658153   0.99413764638963
     0.35000000       0.95887972350071  -0.26108371938617   0.99378822324946
     0.36000000       0.95652351542394  -0.26825995886158   0.99342872974732
     0.37000000       0.95410401252161  -0.27541250890301   0.99305917083027
     0.38000000       0.95162146828292  -0.28254074614882   0.99267955158313
     0.39000000       0.94907614274060  -0.28964405005214   0.99228987722841
     0.40000000       0.94646830243882  -0.29672180295223   0.99189015312617
     0.41000000       0.94379822040033  -0.30377339014537   0.99148038477382
     0.42000000       0.94106617609272  -0.31079819995544   0.99106057780608
     0.43000000       0.93827245539395  -0.31779562380407   0.99063073799475
     0.44000000       0.93541735055710  -0.32476505628039   0.99019087124861
     0.45000000       0.93250116017430  -0.33170589521040   0.98974098361326
     0.46000000       0.92952418913993  -0.33861754172584   0.98928108127099
     0.47000000       0.92648674861300  -0.34549940033277   0.98881117054056
     0.48000000       0.92338915597884  -0.35235087897953   0.98833125787711
     0.49000000       0.92023173480995  -0.35917138912441   0.98784134987198
     0.50000000       0.91701481482615  -0.36596034580280   0.98734145325249
     0.51000000       0.91373873185397  -0.37271716769386   0.98683157488187
     0.52000000       0.91040382778527  -0.37944127718674   0.98631172175899
     0.53000000       0.90701045053518  -0.38613210044633   0.98578190101824
     0.54000000       0.90355895399926  -0.39278906747848   0.98524211992933
     0.55000000       0.90004969800992  -0.39941161219480   0.98469238589714
     0.56000000       0.89648304829222  -0.40599917247683   0.98413270646148
     0.57000000       0.89285937641883  -0.41255119023984   0.98356308929693
     0.58000000       0.88917905976435  -0.41906711149596   0.98298354221268
     0.59000000       0.88544248145895  -0.42554638641694   0.98239407315226
     0.60000000       0.88165003034124  -0.43198846939622   0.98179469019342
     0.61000000       0.87780210091054  -0.43839281911055   0.98118540154787
     0.62000000       0.87389909327840  -0.44475889858102   0.98056621556110
     0.63000000       0.86994141311949  -0.45108617523355   0.97993714071218
     0.64000000       0.86592947162178  -0.45737412095877   0.97929818561355
     0.65000000       0.86186368543610  -0.46362221217136   0.97864935901075
     0.66000000       0.85774447662501  -0.46982992986882   0.97799066978230
     0.67000000       0.85357227261105  -0.47599675968956   0.97732212693940
     0.68000000       0.84934750612436  -0.48212219197054   0.97664373962574
     0.69000000       0.84507061514958  -0.48820572180416   0.97595551711726
     0.70000000       0.84074204287227  -0.49424684909458   0.97525746882193
     0.71000000       0.83636223762457  -0.50024507861351   0.97454960427954
     0.72000000       0.83193165283031  -0.50619992005521   0.97383193316141
     0.73000000       0.82745074694957  -0.51211088809102   0.97310446527019
     0.74000000       0.82291998342251  -0.51797750242312   0.97236721053962
     0.75000000       0.81833983061275  -0.52379928783770   0.97162017903427
     0.76000000       0.81371076175005  -0.52957577425751   0.97086338094929
     0.77000000       0.80903325487254  -0.53530649679368   0.97009682661020
     0.78000000       0.80430779276825  -0.54099099579690   0.96932052647257
     0.79000000       0.79953486291619  -0.54662881690794   0.96853449112181
     0.80000000       0.79471495742683  -0.55221951110749   0.96773873127292
     0.81000000       0.78984857298203  -0.55776263476529   0.96693325777019
     0.82000000       0.78493621077447  -0.56325774968861   0.96611808158695
     0.83000000       0.77997837644653  -0.56870442316997   0.96529321382534
     0.84000000       0.77497558002866  -0.57410222803422   0.96445866571597
     0.85000000       0.76992833587726  -0.57945074268489   0.96361444861770
     0.86000000       0.76483716261199  -0.58474955114980   0.96276057401736
     0.87000000       0.75970258305268  -0.58999824312598   0.96189705352946
     0.88000000       0.75452512415570  -0.59519641402386   0.96102389889589
     0.89000000       0.74930531694988  -0.60034366501074   0.96014112198567
     0.90000000       0.74404369647191  -0.60543960305348   0.95924873479465
     0.91000000       0.73874080170137  -0.61048384096048   0.95834674944523
     0.92000000       0.73339717549523  -0.61547599742293   0.95743517818604
     0.93000000       0.72801336452197  -0.62041569705531   0.95651403339168
     0.94000000       0.72258991919521  -0.62530257043508   0.95558332756241
     0.95000000       0.71712739360698  -0.63013625414164   0.95464307332385
     0.96000000       0.71162634546052  -0.63491639079458   0.95369328342666
     0.97000000       0.70608733600270  -0.63964262909108   0.95273397074626
     0.98000000       0.70051092995605  -0.64431462384257   0.95176514828254
     0.99000000       0.69489769545039  -0.64893203601063   0.95078682915950
     1.00000000       0.68924820395411  -0.65349453274206   0.94979902662497
     1.01000000       0.68356303020502  -0.65800178740323   0.94880175405029
     1.02000000       0.67784275214089  -0.66245347961358   0.94779502493001
     1.03000000       0.67208795082967  -0.66684929527837   0.94677885288154
     1.04000000       0.66629921039927  -0.67118892662058   0.94575325164483
     1.05000000       0.66047711796709  -0.67547207221210   0.94471823508209
     1.06000000       0.65462226356923  -0.67969843700401   0.94367381717742
     1.07000000       0.64873524008931  -0.68386773235613   0.94262001203648
     1.08000000       0.64281664318709  -0.68797967606571   0.94155683388619
     1.09000000       0.63686707122669  -0.69203399239535   0.94048429707439
     1.10000000       0.63088712520462  -0.69603041210008   0.93940241606948
     1.11000000       0.62487740867749  -0.69996867245361   0.93831120546009
     1.12000000       0.61883852768944  -0.70384851727375   0.93721067995477
     1.13000000       0.61277109069932  -0.70766969694708   0.93610085438163
     1.14000000       0.60667570850768  -0.71143196845269   0.93498174368796
     1.15000000       0.60055299418345  -0.71513509538516   0.93385336293995
     1.16000000       0.59440356299043  -0.71877884797665   0.93271572732230
     1.17000000       0.58822803231354  -0.72236300311824   0.93156885213786
     1.18000000       0.58202702158488  -0.72588734438036   0.93041275280734
     1.19000000       0.57580115220961  -0.72935166203238   0.92924744486886
     1.20000000       0.56955104749162  -0.73275575306143   0.92807294397769
     1.21000000       0.56327733255896  -0.73609942119029   0.92688926590582
     1.22000000       0.55698063428925  -0.73938247689453   0.92569642654163
     1.23000000       0.55066158123479  -0.74260473741867   0.92449444188954
     1.24000000       0.54432080354757  -0.74576602679167   0.92328332806962
     1.25000000       0.53795893290420  -0.74886617584142   0.92206310131724
     1.26000000       0.53157660243056  -0.75190502220844   0.92083377798270
     1.27000000       0.52517444662652  -0.75488241035878   0.91959537453086
     1.28000000       0.51875310129041  -0.75779819159593   0.91834790754075
     1.29000000       0.51231320344341  -0.76065222407206   0.91709139370524
     1.30000000       0.50585539125393  -0.76344437279825   0.91582584983062
     1.31000000       0.49938030396180  -0.76617450965395   0.91455129283625
     1.32000000       0.49288858180248  -0.76884251339558   0.91326773975417
     1.33000000       0.48638086593114  -0.77144826966424   0.91197520772874
     1.34000000       0.47985779834675  -0.77399167099260   0.91067371401622
     1.35000000       0.47332002181605  -0.77647261681092   0.90936327598444
     1.36000000       0.46676817979761  -0.77889101345223   0.90804391111235
     1.37000000       0.46020291636570  -0.78124677415663   0.90671563698970
     1.38000000       0.45362487613432  -0.78353981907476   0.90537847131660
     1.39000000       0.44703470418111  -0.78577007527041   0.90403243190317
     1.40000000       0.44043304597132  -0.78793747672227   0.90267753666912
     1.41000000       0.43382054728176  -0.79004196432483   0.90131380364337
     1.42000000       0.42719785412484  -0.79208348588843   0.89994125096366
     1.43000000       0.42056561267257  -0.79406199613848   0.89855989687616
     1.44000000       0.41392446918066  -0.79597745671377   0.89716975973503
     1.45000000       0.40727506991266  -0.79782983616400   0.89577085800211
     1.46000000       0.40061806106414  -0.79961910994640   0.89436321024641
     1.47000000       0.39395408868701  -0.80134526042160   0.89294683514382
     1.48000000       0.38728379861386  -0.80300827684848   0.89152175147662
     1.49000000       0.38060783638240  -0.80460815537841   0.89008797813314
     1.50000000       0.37392684716007  -0.80614489904841   0.88864553410730
     1.51000000       0.36724147566867  -0.80761851777366   0.88719443849825
     1.52000000       0.36055236610920  -0.80902902833905   0.88573471050996
     1.53000000       0.35386016208673  -0.81037645438995   0.88426636945079
     1.54000000       0.34716550653557  -0.81166082642213   0.88278943473308
     1.55000000       0.34046904164439  -0.81288218177084   0.88130392587278
     1.56000000       0.33377140878168  -0.81404056459907   0.87980986248898
     1.57000000       0.32707324842127  -0.81513602588499   0.87830726430357
     1.58000000       0.32037520006810  -0.81616862340853   0.87679615114076
     1.59000000       0.31367790218409  -0.81713842173716   0.87527654292670
     1.60000000       0.30698199211432  -0.81804549221088   0.87374845968906
     1.61000000       0.30028810601333  -0.81888991292631   0.87221192155664
     1.62000000       0.29359687877166  -0.81967176872007   0.87066694875891
     1.63000000       0.28690894394266  -0.82039115115124   0.86911356162561
     1.64000000       0.28022493366944  -0.82104815848309   0.86755178058633
     1.65000000       0.27354547861218  -0.82164289566399   0.86598162617014
     1.66000000       0.26687120787560  -0.82217547430748   0.86440311900508
     1.67000000       0.26020274893673  -0.82264601267156   0.86281627981781
     1.68000000       0.25354072757295  -0.82305463563724   0.86122112943318
     1.69000000       0.24688576779030  -0.82340147468617   0.85961768877378
     1.70000000       0.24023849175211  -0.82368666787765   0.85800597885954
     1.71000000       0.23359951970786  -0.82391035982469   0.85638602080732
     1.72000000       0.22696946992244  -0.82407270166940   0.85475783583046
     1.73000000       0.22034895860561  -0.82417385105754   0.85312144523836
     1.74000000       0.21373859984189  -0.82421397211238   0.85147687043609
     1.75000000       0.20713900552073  -0.82419323540769   0.84982413292393
     1.76000000       0.20055078526704  -0.82411181794000   0.84816325429695
     1.77000000       0.19397454637200  -0.82396990310015   0.84649425624460
     1.78000000       0.18741089372437  -0.82376768064405   0.84481716055028
     1.79000000       0.18086042974200  -0.82350534666263   0.84313198909091
     1.80000000       0.17432375430383  -0.82318310355117   0.84143876383651
     1.81000000       0.16780146468225  -0.82280115997777   0.83973750684978
     1.82000000       0.16129415547580  -0.82235973085116   0.83802824028564
     1.83000000       0.15480241854233  -0.82185903728770   0.83631098639084
     1.84000000       0.14832684293253  -0.82129930657779   0.83458576750355
     1.85000000       0.14186801482385  -0.82068077215139   0.83285260605288
     1.86000000       0.13542651745497  -0.82000367354295   0.83111152455848
     1.87000000       0.12900293106048  -0.81926825635555   0.82936254563012
     1.88000000       0.12259783280623  -0.81847477222442   0.82760569196726
     1.89000000       0.11621179672497  -0.81762347877965   0.82584098635862
     1.90000000       0.10984539365249  -0.81671463960830   0.82406845168177
     1.91000000       0.10349919116422  -0.81574852421578   0.82228811090266
     1.92000000       0.09717375351235  -0.81472540798652   0.82049998707525
     1.93000000       0.09086964156329  -0.81364557214405   0.81870410334104
     1.94000000       0.08458741273577  -0.81250930371029   0.81690048292868
     1.95000000       0.07832762093935  -0.81131689546427   0.81508914915352
     1.96000000       0.07209081651338  -0.81006864590015   0.81327012541717
     1.97000000       0.06587754616660  -0.80876485918457   0.81144343520715
     1.98000000       0.05968835291710  -0.80740584511342   0.80960910209636
     1.99000000       0.05352377603294  -0.80599191906787   0.80776714974275
     2.00000000       0.04738435097314  -0.80452340196983   0.80591760188884
     2.01000000       0.04127060932937  -0.80300062023679   0.80406048236130
     2.02000000       0.03518307876806  -0.80142390573601   0.80219581507059
     2.03000000       0.02912228297307  -0.79979359573808   0.80032362401044
     2.04000000       0.02308874158896  -0.79811003286988   0.79844393325751
     2.05000000       0.01708297016481  -0.79637356506701   0.79655676697094
     2.06000000       0.01110548009854  -0.79458454552549   0.79466214939191
     2.07000000       0.00515677858188  -0.79274333265299   0.79276010484327
     2.08000000      -0.00076263145414  -0.79085029001940   0.79085065772908
     2.09000000      -0.00665225139305  -0.78890578630690   0.78893383253420
     2.10000000      -0.01251158698630  -0.78691019525935   0.78700965382390
     2.11000000      -0.01834014840594  -0.78486389563125   0.78507814624342
     2.12000000      -0.02413745029675  -0.78276727113606   0.78313933451757
     2.13000000      -0.02990301182776  -0.78062071039398   0.78119324345028
     2.14000000      -0.03563635674312  -0.77842460687923   0.77923989792425
     2.15000000      -0.04133701341240  -0.77617935886676   0.77727932290050
     2.16000000      -0.04700451488022  -0.77388536937845   0.77531154341796
     2.17000000      -0.05263839891528  -0.77154304612881   0.77333658459308
     2.18000000      -0.05823820805877  -0.76915280147011   0.77135447161939
     2.19000000      -0.06380348967208  -0.76671505233711   0.76936522976713
     2.20000000      -0.06933379598393  -0.76423022019116   0.76736888438285
     2.21000000      -0.07482868413681  -0.76169873096396   0.76536546088895
     2.22000000      -0.08028771623278  -0.75912101500072   0.76335498478336
     2.23000000      -0.08571045937861  -0.75649750700290   0.76133748163905
     2.24000000      -0.09109648573025  -0.75382864597050   0.75931297710372
     2.25000000      -0.09644537253661  -0.75111487514388   0.75728149689935
     2.26000000      -0.10175670218272  -0.74835664194508   0.75524306682181
     2.27000000      -0.10703006223216  -0.74555439791880   0.75319771274048
     2.28000000      -0.11226504546882  -0.74270859867287   0.75114546059784
     2.29000000      -0.11746124993800  -0.73981970381833   0.74908633640912
     2.30000000      -0.12261827898677  -0.73688817690905   0.74702036626187
     2.31000000      -0.12773574130364  -0.73391448538102   0.74494757631559
     2.32000000      -0.13281325095762  -0.73089910049115   0.74286799280135
     2.33000000      -0.13785042743643  -0.72784249725578   0.74078164202141
     2.34000000      -0.14284689568411  -0.72474515438867   0.73868855034882
     2.35000000      -0.14780228613788  -0.72160755423876   0.73658874422708
     2.36000000      -0.15271623476430  -0.71843018272747   0.73448225016975
     2.37000000      -0.15758838309467  -0.71521352928566   0.73236909476004
     2.38000000      -0.16241837825975  -0.71195808679025   0.73024930465051
     2.39000000      -0.16720587302379  -0.70866435150049   0.72812290656266
     2.40000000      -0.17195052581769  -0.70533282299390   0.72598992728655
     2.41000000      -0.17665200077159  -0.70196400410191   0.72385039368048
     2.42000000      -0.18130996774665  -0.69855840084510   0.72170433267062
     2.43000000      -0.18592410236606  -0.69511652236823   0.71955177125063
     2.44000000      -0.19049408604538  -0.69163888087492   0.71739273648133
     2.45000000      -0.19501960602207  -0.68812599156203   0.71522725549034
     2.46000000      -0.19950035538435  -0.68457837255382   0.71305535547173
     2.47000000      -0.20393603309922  -0.68099654483569   0.71087706368570
     2.48000000      -0.20832634403980  -0.67738103218788   0.70869240745820
     2.49000000      -0.21267099901188  -0.67373236111866   0.70650141418064
     2.50000000      -0.21696971477973  -0.67005106079752   0.70430411130951
     2.51000000      -0.22122221409112  -0.66633766298787   0.70210052636607
     2.52000000      -0.22542822570167  -0.66259270197973   0.69989068693604
     2.53000000      -0.22958748439826  -0.65881671452207   0.69767462066925
     2.54000000      -0.23369973102192  -0.65501023975496   0.69545235527933
     2.55000000      -0.23776471248971  -0.65117381914154   0.69322391854342
     2.56000000      -0.24178218181599  -0.64730799639975   0.69098933830180
     2.57000000      -0.24575189813288  -0.64341331743393   0.68874864245765
