#    time[fs]         Re(autocorrel)     Im(autocorrel)     Abs(autocorrel)
     0.00000000       1.00000000000000   0.00000000000000   1.00000000000000
     0.01000000       0.99996468530873  -0.00759621172322   0.99999353712768
     0.02000000       0.99985874560861  -0.01519167036744   0.99997414867514
     0.03000000       0.99968219401999  -0.02278562296156   0.99994183513561
     0.04000000       0.99943505240782  -0.03037731675027   0.99989659733113
     0.05000000       0.99911735137808  -0.03796599930188   0.99983843641247
     0.06000000       0.99872913027292  -0.04555091861613   0.99976735385913
     0.07000000       0.99827043716435  -0.05313132323185   0.99968335147919
     0.08000000       0.99774132884651  -0.06070646233463   0.99958643140930
     0.09000000       0.99714187082656  -0.06827558586429   0.99947659611449
     0.10000000       0.99647213731424  -0.07583794462223   0.99935384838812
     0.11000000       0.99573221120990  -0.08339279037866   0.99921819135167
     0.12000000       0.99492218409125  -0.09093937597966   0.99906962845463
     0.13000000       0.99404215619870  -0.09847695545394   0.99890816347432
     0.14000000       0.99309223641926  -0.10600478411958   0.99873380051566
     0.15000000       0.99207254226915  -0.11352211869036   0.99854654401100
     0.16000000       0.99098319987493  -0.12102821738193   0.99834639871990
     0.17000000       0.98982434395333  -0.12852234001774   0.99813336972885
     0.18000000       0.98859611778968  -0.13600374813458   0.99790746245104
     0.19000000       0.98729867321496  -0.14347170508791   0.99766868262608
     0.20000000       0.98593217058155  -0.15092547615684   0.99741703631972
     0.21000000       0.98449677873749  -0.15836432864875   0.99715252992351
     0.22000000       0.98299267499956  -0.16578753200355   0.99687517015453
     0.23000000       0.98142004512488  -0.17319435789759   0.99658496405499
     0.24000000       0.97977908328123  -0.18058408034712   0.99628191899192
     0.25000000       0.97806999201601  -0.18795597581143   0.99596604265678
     0.26000000       0.97629298222388  -0.19530932329542   0.99563734306509
     0.27000000       0.97444827311309  -0.20264340445185   0.99529582855597
     0.28000000       0.97253609217049  -0.20995750368302   0.99494150779181
     0.29000000       0.97055667512517  -0.21725090824204   0.99457438975776
     0.30000000       0.96851026591092  -0.22452290833353   0.99419448376129
     0.31000000       0.96639711662728  -0.23177279721383   0.99380179943178
     0.32000000       0.96421748749936  -0.23899987129068   0.99339634671995
     0.33000000       0.96197164683639  -0.24620343022231   0.99297813589743
     0.34000000       0.95965987098893  -0.25338277701598   0.99254717755622
     0.35000000       0.95728244430494  -0.26053721812591   0.99210348260815
     0.36000000       0.95483965908445  -0.26766606355063   0.99164706228436
     0.37000000       0.95233181553313  -0.27476862692966   0.99117792813472
     0.38000000       0.94975922171450  -0.28184422563957   0.99069609202727
     0.39000000       0.94712219350099  -0.28889218088940   0.99020156614760
     0.40000000       0.94442105452377  -0.29591181781538   0.98969436299829
     0.41000000       0.94165613612137  -0.30290246557494   0.98917449539826
     0.42000000       0.93882777728706  -0.30986345744007   0.98864197648212
     0.43000000       0.93593632461516  -0.31679413088987   0.98809681969957
     0.44000000       0.93298213224602  -0.32369382770248   0.98753903881468
     0.45000000       0.92996556180998  -0.33056189404610   0.98696864790524
     0.46000000       0.92688698237006  -0.33739768056941   0.98638566136207
     0.47000000       0.92374677036360  -0.34420054249104   0.98579009388831
     0.48000000       0.92054530954272  -0.35096983968836   0.98518196049866
     0.49000000       0.91728299091365  -0.35770493678540   0.98456127651871
     0.50000000       0.91396021267501  -0.36440520323993   0.98392805758413
     0.51000000       0.91057738015491  -0.37107001342972   0.98328231963995
     0.52000000       0.90713490574707  -0.37769874673795   0.98262407893974
     0.53000000       0.90363320884577  -0.38429078763770   0.98195335204485
     0.54000000       0.90007271577982  -0.39084552577559   0.98127015582359
     0.55000000       0.89645385974543  -0.39736235605450   0.98057450745043
     0.56000000       0.89277708073809  -0.40384067871538   0.97986642440514
     0.57000000       0.88904282548338  -0.41027989941813   0.97914592447195
     0.58000000       0.88525154736688  -0.41667942932154   0.97841302573871
     0.59000000       0.88140370636290  -0.42303868516229   0.97766774659600
     0.60000000       0.87749976896248  -0.42935708933293   0.97691010573627
     0.61000000       0.87354020810019  -0.43563406995892   0.97614012215291
     0.62000000       0.86952550308013  -0.44186906097470   0.97535781513936
     0.63000000       0.86545613950095  -0.44806150219870   0.97456320428818
     0.64000000       0.86133260917995  -0.45421083940734   0.97375630949014
     0.65000000       0.85715541007623  -0.46031652440806   0.97293715093323
     0.66000000       0.85292504621307  -0.46637801511125   0.97210574910175
     0.67000000       0.84864202759927  -0.47239477560112   0.97126212477530
     0.68000000       0.84430687014976  -0.47836627620558   0.97040629902783
     0.69000000       0.83992009560531  -0.48429199356497   0.96953829322661
     0.70000000       0.83548223145140  -0.49017141069972   0.96865812903127
     0.71000000       0.83099381083628  -0.49600401707698   0.96776582839275
     0.72000000       0.82645537248828  -0.50178930867605   0.96686141355229
     0.73000000       0.82186746063223  -0.50752678805278   0.96594490704038
     0.74000000       0.81723062490525  -0.51321596440276   0.96501633167573
     0.75000000       0.81254542027162  -0.51885635362348   0.96407571056418
     0.76000000       0.80781240693710  -0.52444747837523   0.96312306709768
     0.77000000       0.80303215026235  -0.52998886814098   0.96215842495315
     0.78000000       0.79820522067580  -0.53548005928496   0.96118180809144
     0.79000000       0.79333219358571  -0.54092059511020   0.96019324075620
     0.80000000       0.78841364929164  -0.54631002591479   0.95919274747278
     0.81000000       0.78345017289523  -0.55164790904702   0.95818035304712
     0.82000000       0.77844235421033  -0.55693380895930   0.95715608256461
     0.83000000       0.77339078767255  -0.56216729726091   0.95611996138895
     0.84000000       0.76829607224820  -0.56734795276946   0.95507201516101
     0.85000000       0.76315881134256  -0.57247536156128   0.95401226979767
     0.86000000       0.75797961270770  -0.57754911702042   0.95294075149066
     0.87000000       0.75275908834969  -0.58256881988658   0.95185748670538
     0.88000000       0.74749785443524  -0.58753407830167   0.95076250217974
     0.89000000       0.74219653119788  -0.59244450785524   0.94965582492291
     0.90000000       0.73685574284364  -0.59729973162862   0.94853748221421
     0.91000000       0.73147611745615  -0.60209938023778   0.94740750160184
     0.92000000       0.72605828690140  -0.60684309187498   0.94626591090168
     0.93000000       0.72060288673200  -0.61153051234914   0.94511273819608
     0.94000000       0.71511055609094  -0.61616129512496   0.94394801183263
     0.95000000       0.70958193761507  -0.62073510136076   0.94277176042291
     0.96000000       0.70401767733807  -0.62525159994500   0.94158401284127
     0.97000000       0.69841842459308  -0.62971046753165   0.94038479822358
     0.98000000       0.69278483191498  -0.63411138857411   0.93917414596594
     0.99000000       0.68711755494232  -0.63845405535801   0.93795208572347
     1.00000000       0.68141725231891  -0.64273816803258   0.93671864740899
     1.01000000       0.67568458559511  -0.64696343464082   0.93547386119179
     1.02000000       0.66992021912883  -0.65112957114839   0.93421775749635
     1.03000000       0.66412481998627  -0.65523630147108   0.93295036700100
     1.04000000       0.65829905784237  -0.65928335750115   0.93167172063670
     1.05000000       0.65244360488105  -0.66327047913225   0.93038184958570
     1.06000000       0.64655913569523  -0.66719741428307   0.92908078528026
     1.07000000       0.64064632718664  -0.67106391891973   0.92776855940134
     1.08000000       0.63470585846543  -0.67486975707679   0.92644520387728
     1.09000000       0.62873841074964  -0.67861470087703   0.92511075088251
     1.10000000       0.62274466726453  -0.68229853054990   0.92376523283623
     1.11000000       0.61672531314172  -0.68592103444863   0.92240868240104
     1.12000000       0.61068103531827  -0.68948200906605   0.92104113248169
     1.13000000       0.60461252243566  -0.69298125904919   0.91966261622369
     1.14000000       0.59852046473868  -0.69641859721242   0.91827316701204
     1.15000000       0.59240555397421  -0.69979384454943   0.91687281846980
     1.16000000       0.58626848329007  -0.70310683024382   0.91546160445688
     1.17000000       0.58010994713375  -0.70635739167843   0.91403955906858
     1.18000000       0.57393064115114  -0.70954537444331   0.91260671663431
     1.19000000       0.56773126208530  -0.71267063234252   0.91116311171626
     1.20000000       0.56151250767527  -0.71573302739948   0.90970877910801
     1.21000000       0.55527507655484  -0.71873242986110   0.90824375383320
     1.22000000       0.54901966815149  -0.72166871820066   0.90676807114419
     1.23000000       0.54274698258532  -0.72454177911930   0.90528176652070
     1.24000000       0.53645772056812  -0.72735150754632   0.90378487566845
     1.25000000       0.53015258330251  -0.73009780663811   0.90227743451784
     1.26000000       0.52383227238131  -0.73278058777586   0.90075947922256
     1.27000000       0.51749748968689  -0.73539977056200   0.89923104615825
     1.28000000       0.51114893729082  -0.73795528281530   0.89769217192117
     1.29000000       0.50478731735367  -0.74044706056477   0.89614289332680
     1.30000000       0.49841333202495  -0.74287504804225   0.89458324740853
     1.31000000       0.49202768334330  -0.74523919767378   0.89301327141630
     1.32000000       0.48563107313693  -0.74753947006966   0.89143300281522
     1.33000000       0.47922420292427  -0.74977583401331   0.88984247928425
     1.34000000       0.47280777381486  -0.75194826644887   0.88824173871487
     1.35000000       0.46638248641061  -0.75405675246753   0.88663081920968
     1.36000000       0.45994904070722  -0.75610128529268   0.88500975908107
     1.37000000       0.45350813599603  -0.75808186626377   0.88337859684993
     1.38000000       0.44706047076610  -0.75999850481898   0.88173737124423
     1.39000000       0.44060674260670  -0.76185121847668   0.88008612119775
     1.40000000       0.43414764811012  -0.76364003281568   0.87842488584869
     1.41000000       0.42768388277484  -0.76536498145423   0.87675370453840
     1.42000000       0.42121614090912  -0.76702610602787   0.87507261680997
     1.43000000       0.41474511553497  -0.76862345616608   0.87338166240700
     1.44000000       0.40827149829253  -0.77015708946775   0.87168088127219
     1.45000000       0.40179597934490  -0.77162707147543   0.86997031354609
     1.46000000       0.39531924728340  -0.77303347564850   0.86824999956574
     1.47000000       0.38884198903331  -0.77437638333506   0.86651997986340
     1.48000000       0.38236488976004  -0.77565588374282   0.86478029516523
     1.49000000       0.37588863277587  -0.77687207390865   0.86303098638997
     1.50000000       0.36941389944708  -0.77802505866722   0.86127209464770
     1.51000000       0.36294136910174  -0.77911495061829   0.85950366123850
     1.52000000       0.35647171893787  -0.78014187009304   0.85772572765120
     1.53000000       0.35000562393230  -0.78110594511922   0.85593833556211
     1.54000000       0.34354375674997  -0.78200731138523   0.85414152683372
     1.55000000       0.33708678765388  -0.78284611220305   0.85233534351348
     1.56000000       0.33063538441557  -0.78362249847016   0.85051982783251
     1.57000000       0.32419021222625  -0.78433662863033   0.84869502220438
     1.58000000       0.31775193360849  -0.78498866863339   0.84686096922385
     1.59000000       0.31132120832859  -0.78557879189391   0.84501771166566
     1.60000000       0.30489869330955  -0.78610717924882   0.84316529248328
     1.61000000       0.29848504254468  -0.78657401891411   0.84130375480773
     1.62000000       0.29208090701191  -0.78697950644031   0.83943314194636
     1.63000000       0.28568693458874  -0.78732384466715   0.83755349738162
     1.64000000       0.27930376996794  -0.78760724367711   0.83566486476994
     1.65000000       0.27293205457383  -0.78782992074797   0.83376728794049
     1.66000000       0.26657242647938  -0.78799210030444   0.83186081089405
     1.67000000       0.26022552032402  -0.78809401386881   0.82994547780186
     1.68000000       0.25389196723208  -0.78813590001055   0.82802133300442
     1.69000000       0.24757239473213  -0.78811800429509   0.82608842101041
     1.70000000       0.24126742667695  -0.78804057923158   0.82414678649556
     1.71000000       0.23497768316431  -0.78790388421975   0.82219647430151
     1.72000000       0.22870378045856  -0.78770818549582   0.82023752943471
     1.73000000       0.22244633091294  -0.78745375607762   0.81826999706538
     1.74000000       0.21620594289273  -0.78714087570864   0.81629392252638
     1.75000000       0.20998322069923  -0.78676983080137   0.81430935131216
     1.76000000       0.20377876449447  -0.78634091437966   0.81231632907774
     1.77000000       0.19759317022686  -0.78585442602031   0.81031490163764
     1.78000000       0.19142702955758  -0.78531067179373   0.80830511496486
     1.79000000       0.18528092978788  -0.78470996420384   0.80628701518991
     1.80000000       0.17915545378721  -0.78405262212713   0.80426064859977
     1.81000000       0.17305117992217  -0.78333897075088   0.80222606163693
     1.82000000       0.16696868198646  -0.78256934151067   0.80018330089845
     1.83000000       0.16090852913157  -0.78174407202700   0.79813241313496
     1.84000000       0.15487128579841  -0.78086350604125   0.79607344524980
     1.85000000       0.14885751164989  -0.77992799335080   0.79400644429803
     1.86000000       0.14286776150434  -0.77893788974347   0.79193145748560
     1.87000000       0.13690258526985  -0.77789355693118   0.78984853216843
     1.88000000       0.13096252787960  -0.77679536248296   0.78775771585155
     1.89000000       0.12504812922799  -0.77564367975716   0.78565905618828
     1.90000000       0.11915992410785  -0.77443888783309   0.78355260097937
     1.91000000       0.11329844214849  -0.77318137144186   0.78143839817224
     1.92000000       0.10746420775474  -0.77187152089668   0.77931649586013
     1.93000000       0.10165774004697  -0.77050973202241   0.77718694228140
     1.94000000       0.09587955280199  -0.76909640608453   0.77504978581872
     1.95000000       0.09013015439502  -0.76763194971744   0.77290507499839
     1.96000000       0.08441004774259  -0.76611677485226   0.77075285848963
     1.97000000       0.07871973024639  -0.76455129864386   0.76859318510385
     1.98000000       0.07305969373817  -0.76293594339749   0.76642610379405
     1.99000000       0.06743042442557  -0.76127113649469   0.76425166365415
     2.00000000       0.06183240283902  -0.75955731031877   0.76206991391836
     2.01000000       0.05626610377956  -0.75779490217966   0.75988090396062
     2.02000000       0.05073199626775  -0.75598435423826   0.75768468329402
     2.03000000       0.04523054349349  -0.75412611343033   0.75548130157023
     2.04000000       0.03976220276702  -0.75222063138976   0.75327080857902
     2.05000000       0.03432742547073  -0.75026836437150   0.75105325424775
     2.06000000       0.02892665701218  -0.74826977317391   0.74882868864089
     2.07000000       0.02356033677805  -0.74622532306070   0.74659716195960
     2.08000000       0.01822889808917  -0.74413548368240   0.74435872454132
     2.09000000       0.01293276815653  -0.74200072899744   0.74211342685934
     2.10000000       0.00767236803839  -0.73982153719278   0.73986131952252
     2.11000000       0.00244811259843  -0.73759839060416   0.73760245327489
     2.12000000      -0.00273958953512  -0.73533177563591   0.73533687899539
     2.13000000      -0.00789033600920  -0.73302218268048   0.73306464769759
     2.14000000      -0.01300373078471  -0.73067010603752   0.73078581052946
     2.15000000      -0.01807938417409  -0.72827604383267   0.72850041877317
     2.16000000      -0.02311691287801  -0.72584049793600   0.72620852384490
     2.17000000      -0.02811594002087  -0.72336397388010   0.72391017729471
     2.18000000      -0.03307609518531  -0.72084698077793   0.72160543080645
     2.19000000      -0.03799701444566  -0.71829003124033   0.71929433619765
     2.20000000      -0.04287834040026  -0.71569364129328   0.71697694541953
     2.21000000      -0.04771972220279  -0.71305833029487   0.71465331055695
     2.22000000      -0.05252081559248  -0.71038462085203   0.71232348382851
     2.23000000      -0.05728128292333  -0.70767303873708   0.70998751758655
     2.24000000      -0.06200079319213  -0.70492411280394   0.70764546431732
     2.25000000      -0.06667902206555  -0.70213837490429   0.70529737664112
     2.26000000      -0.07131565190607  -0.69931635980334   0.70294330731246
     2.27000000      -0.07591037179689  -0.69645860509565   0.70058330922034
     2.28000000      -0.08046287756572  -0.69356565112057   0.69821743538847
     2.29000000      -0.08497287180758  -0.69063804087767   0.69584573897565
     2.30000000      -0.08944006390642  -0.68767631994197   0.69346827327609
     2.31000000      -0.09386417005580  -0.68468103637906   0.69108509171980
     2.32000000      -0.09824491327839  -0.68165274066009   0.68869624787310
     2.33000000      -0.10258202344445  -0.67859198557670   0.68630179543906
     2.34000000      -0.10687523728928  -0.67549932615581   0.68390178825808
     2.35000000      -0.11112429842953  -0.67237531957442   0.68149628030846
     2.36000000      -0.11532895737847  -0.66922052507425   0.67908532570706
     2.37000000      -0.11948897156028  -0.66603550387642   0.67666897871001
     2.38000000      -0.12360410532313  -0.66282081909605   0.67424729371343
     2.39000000      -0.12767412995132  -0.65957703565685   0.67182032525423
     2.40000000      -0.13169882367632  -0.65630472020574   0.66938812801099
     2.41000000      -0.13567797168676  -0.65300444102742   0.66695075680485
     2.42000000      -0.13961136613735  -0.64967676795900   0.66450826660049
     2.43000000      -0.14349880615678  -0.64632227230468   0.66206071250717
     2.44000000      -0.14734009785455  -0.64294152675037   0.65960814977977
     2.45000000      -0.15113505432678  -0.63953510527857   0.65715063382000
     2.46000000      -0.15488349566091  -0.63610358308307   0.65468822017756
     2.47000000      -0.15858524893946  -0.63264753648397   0.65222096455145
     2.48000000      -0.16224014824270  -0.62916754284265   0.64974892279131
     2.49000000      -0.16584803465025  -0.62566418047686   0.64727215089878
     2.50000000      -0.16940875624176  -0.62213802857605   0.64479070502906
     2.51000000      -0.17292216809641  -0.61858966711666   0.64230464149239
     2.52000000      -0.17638813229156  -0.61501967677771   0.63981401675570
     2.53000000      -0.17980651790024  -0.61142863885644   0.63731888744431
     2.54000000      -0.18317720098771  -0.60781713518419   0.63481931034367
     2.55000000      -0.18650006460696  -0.60418574804246   0.63231534240126
     2.56000000      -0.18977499879325  -0.60053506007910   0.62980704072849
     2.57000000      -0.19300190055761  -0.59686565422477   0.62729446260270
