#    time[fs]         Re(autocorrel)     Im(autocorrel)     Abs(autocorrel)
     0.00000000       1.00000000000000   0.00000000000000   1.00000000000000
     0.01000000       0.99996616246638  -0.00759622593691   0.99999501435068
     0.02000000       0.99986465335790  -0.01519178407050   0.99998005747002
     0.03000000       0.99969548315133  -0.02278600667311   0.99995512955996
     0.04000000       0.99945866930653  -0.03037822616837   0.99992023095700
     0.05000000       0.99915423626437  -0.03796777520683   0.99987536213230
     0.06000000       0.99878221544379  -0.04555398674155   0.99982052369156
     0.07000000       0.99834264523801  -0.05313619410366   0.99975571637508
     0.08000000       0.99783557100990  -0.06071373107787   0.99968094105772
     0.09000000       0.99726104508655  -0.06828593197790   0.99959619874888
     0.10000000       0.99661912675294  -0.07585213172190   0.99950149059246
     0.11000000       0.99590988224485  -0.08341166590775   0.99939681786689
     0.12000000       0.99513338474084  -0.09096387088825   0.99928218198501
     0.13000000       0.99428971435347  -0.09850808384628   0.99915758449414
     0.14000000       0.99337895811967  -0.10604364286982   0.99902302707597
     0.15000000       0.99240120999026  -0.11356988702683   0.99887851154653
     0.16000000       0.99135657081864  -0.12108615644007   0.99872403985622
     0.17000000       0.99024514834866  -0.12859179236173   0.99855961408965
     0.18000000       0.98906705720168  -0.13608613724795   0.99838523646570
     0.19000000       0.98782241886276  -0.14356853483315   0.99820090933740
     0.20000000       0.98651136166605  -0.15103833020425   0.99800663519192
     0.21000000       0.98513402077938  -0.15849486987470   0.99780241665048
     0.22000000       0.98369053818796  -0.16593750185829   0.99758825646831
     0.23000000       0.98218106267737  -0.17336557574284   0.99736415753460
     0.24000000       0.98060574981561  -0.18077844276364   0.99713012287238
     0.25000000       0.97896476193445  -0.18817545587668   0.99688615563853
     0.26000000       0.97725826810986  -0.19555596983172   0.99663225912365
     0.27000000       0.97548644414174  -0.20291934124507   0.99636843675201
     0.28000000       0.97364947253277  -0.21026492867214   0.99609469208145
     0.29000000       0.97174754246646  -0.21759209267982   0.99581102880335
     0.30000000       0.96978084978444  -0.22490019591849   0.99551745074248
     0.31000000       0.96774959696293  -0.23218860319387   0.99521396185697
     0.32000000       0.96565399308842  -0.23945668153852   0.99490056623818
     0.33000000       0.96349425383251  -0.24670380028312   0.99457726811063
     0.34000000       0.96127060142609  -0.25392933112746   0.99424407183192
     0.35000000       0.95898326463256  -0.26113264821102   0.99390098189258
     0.36000000       0.95663247872044  -0.26831312818343   0.99354800291601
     0.37000000       0.95421848543507  -0.27547015027445   0.99318513965838
     0.38000000       0.95174153296964  -0.28260309636371   0.99281239700849
     0.39000000       0.94920187593534  -0.28971135105007   0.99242977998770
     0.40000000       0.94659977533088  -0.29679430172070   0.99203729374976
     0.41000000       0.94393549851111  -0.30385133861974   0.99163494358076
     0.42000000       0.94120931915498  -0.31088185491664   0.99122273489897
     0.43000000       0.93842151723272  -0.31788524677412   0.99080067325472
     0.44000000       0.93557237897224  -0.32486091341576   0.99036876433028
     0.45000000       0.93266219682483  -0.33180825719318   0.98992701393976
     0.46000000       0.92969126943009  -0.33872668365289   0.98947542802892
     0.47000000       0.92665990158016  -0.34561560160263   0.98901401267510
     0.48000000       0.92356840418314  -0.35247442317742   0.98854277408701
     0.49000000       0.92041709422590  -0.35930256390512   0.98806171860469
     0.50000000       0.91720629473608  -0.36609944277155   0.98757085269925
     0.51000000       0.91393633474338  -0.37286448228525   0.98707018297283
     0.52000000       0.91060754924022  -0.37959710854171   0.98655971615839
     0.53000000       0.90722027914158  -0.38629675128723   0.98603945911956
     0.54000000       0.90377487124422  -0.39296284398223   0.98550941885053
     0.55000000       0.90027167818516  -0.39959482386420   0.98496960247583
     0.56000000       0.89671105839955  -0.40619213201010   0.98442001725023
     0.57000000       0.89309337607770  -0.41275421339828   0.98386067055854
     0.58000000       0.88941900112163  -0.41928051696995   0.98329156991545
     0.59000000       0.88568830910077  -0.42577049569014   0.98271272296537
     0.60000000       0.88190168120710  -0.43222360660811   0.98212413748224
     0.61000000       0.87805950420961  -0.43863931091734   0.98152582136940
     0.62000000       0.87416217040808  -0.44501707401490   0.98091778265935
     0.63000000       0.87021007758620  -0.45135636556034   0.98030002951363
     0.64000000       0.86620362896412  -0.45765665953409   0.97967257022258
     0.65000000       0.86214323315027  -0.46391743429522   0.97903541320520
     0.66000000       0.85802930409265  -0.47013817263874   0.97838856700894
     0.67000000       0.85386226102938  -0.47631836185228   0.97773204030953
     0.68000000       0.84964252843871  -0.48245749377226   0.97706584191074
     0.69000000       0.84537053598846  -0.48855506483946   0.97638998074423
     0.70000000       0.84104671848472  -0.49461057615403   0.97570446586932
     0.71000000       0.83667151582007  -0.50062353352990   0.97500930647282
     0.72000000       0.83224537292118  -0.50659344754860   0.97430451186879
     0.73000000       0.82776873969579  -0.51251983361251   0.97359009149835
     0.74000000       0.82324207097918  -0.51840221199749   0.97286605492945
     0.75000000       0.81866582647998  -0.52424010790490   0.97213241185669
     0.76000000       0.81404047072552  -0.53003305151300   0.97138917210108
     0.77000000       0.80936647300654  -0.53578057802774   0.97063634560982
     0.78000000       0.80464430732137  -0.54148222773295   0.96987394245610
     0.79000000       0.79987445231964  -0.54713754603982   0.96910197283883
     0.80000000       0.79505739124535  -0.55274608353579   0.96832044708248
     0.81000000       0.79019361187947  -0.55830739603285   0.96752937563678
     0.82000000       0.78528360648204  -0.56382104461504   0.96672876907654
     0.83000000       0.78032787173369  -0.56928659568548   0.96591863810137
     0.84000000       0.77532690867676  -0.57470362101256   0.96509899353549
     0.85000000       0.77028122265579  -0.58007169777560   0.96426984632745
     0.86000000       0.76519132325766  -0.58539040860974   0.96343120754991
     0.87000000       0.76005772425114  -0.59065934165023   0.96258308839939
     0.88000000       0.75488094352605  -0.59587809057598   0.96172550019600
     0.89000000       0.74966150303187  -0.60104625465242   0.96085845438322
     0.90000000       0.74439992871599  -0.60616343877375   0.95998196252762
     0.91000000       0.73909675046142  -0.61122925350435   0.95909603631863
     0.92000000       0.73375250202414  -0.61624331511960   0.95820068756826
     0.93000000       0.72836772096993  -0.62120524564598   0.95729592821082
     0.94000000       0.72294294861090  -0.62611467290038   0.95638177030272
     0.95000000       0.71747872994143  -0.63097123052879   0.95545822602214
     0.96000000       0.71197561357388  -0.63577455804419   0.95452530766878
     0.97000000       0.70643415167379  -0.64052430086377   0.95358302766361
     0.98000000       0.70085489989473  -0.64522011034539   0.95263139854855
     0.99000000       0.69523841731273  -0.64986164382329   0.95167043298624
     1.00000000       0.68958526636040  -0.65444856464312   0.95070014375973
     1.01000000       0.68389601276063  -0.65898054219613   0.94972054377222
     1.02000000       0.67817122545994  -0.66345725195276   0.94873164604673
     1.03000000       0.67241147656153  -0.66787837549529   0.94773346372590
     1.04000000       0.66661734125790  -0.67224360054992   0.94672601007159
     1.05000000       0.66078939776323  -0.67655262101795   0.94570929846468
     1.06000000       0.65492822724539  -0.68080513700631   0.94468334240473
     1.07000000       0.64903441375762  -0.68500085485721   0.94364815550968
     1.08000000       0.64310854416998  -0.68913948717716   0.94260375151557
     1.09000000       0.63715120810040  -0.69322075286508   0.94155014427625
     1.10000000       0.63116299784553  -0.69724437713973   0.94048734776303
     1.11000000       0.62514450831128  -0.70121009156633   0.93941537606440
     1.12000000       0.61909633694306  -0.70511763408242   0.93833424338574
     1.13000000       0.61301908365581  -0.70896674902286   0.93724396404898
     1.14000000       0.60691335076377  -0.71275718714418   0.93614455249229
     1.15000000       0.60077974290996  -0.71648870564803   0.93503602326977
     1.16000000       0.59461886699549  -0.72016106820387   0.93391839105114
     1.17000000       0.58843133210860  -0.72377404497090   0.93279167062139
     1.18000000       0.58221774945351  -0.72732741261914   0.93165587688049
     1.19000000       0.57597873227904  -0.73082095434977   0.93051102484306
     1.20000000       0.56971489580707  -0.73425445991463   0.92935712963800
     1.21000000       0.56342685716078  -0.73762772563494   0.92819420650823
     1.22000000       0.55711523529270  -0.74094055441920   0.92702227081030
     1.23000000       0.55078065091267  -0.74419275578031   0.92584133801407
     1.24000000       0.54442372641549  -0.74738414585186   0.92465142370239
     1.25000000       0.53804508580860  -0.75051454740363   0.92345254357074
     1.26000000       0.53164535463946  -0.75358378985628   0.92224471342690
     1.27000000       0.52522515992291  -0.75659170929519   0.92102794919061
     1.28000000       0.51878513006833  -0.75953814848360   0.91980226689322
     1.29000000       0.51232589480673  -0.76242295687477   0.91856768267732
     1.30000000       0.50584808511772  -0.76524599062350   0.91732421279643
     1.31000000       0.49935233315637  -0.76800711259668   0.91607187361462
     1.32000000       0.49283927218003  -0.77070619238318   0.91481068160616
     1.33000000       0.48630953647501  -0.77334310630278   0.91354065335516
     1.34000000       0.47976376128323  -0.77591773741438   0.91226180555523
     1.35000000       0.47320258272881  -0.77842997552338   0.91097415500910
     1.36000000       0.46662663774461  -0.78087971718819   0.90967771862827
     1.37000000       0.46003656399869  -0.78326686572597   0.90837251343263
     1.38000000       0.45343299982082  -0.78559133121759   0.90705855655009
     1.39000000       0.44681658412889  -0.78785303051167   0.90573586521625
     1.40000000       0.44018795635532  -0.79005188722788   0.90440445677397
     1.41000000       0.43354775637354  -0.79218783175944   0.90306434867304
     1.42000000       0.42689662442438  -0.79426080127473   0.90171555846980
     1.43000000       0.42023520104250  -0.79627073971812   0.90035810382673
     1.44000000       0.41356412698290  -0.79821759781004   0.89899200251212
     1.45000000       0.40688404314741  -0.80010133304615   0.89761727239966
     1.46000000       0.40019559051121  -0.80192190969572   0.89623393146803
     1.47000000       0.39349941004945  -0.80367929879926   0.89484199780058
     1.48000000       0.38679614266391  -0.80537347816524   0.89344148958488
     1.49000000       0.38008642910973  -0.80700443236608   0.89203242511239
     1.50000000       0.37337090992218  -0.80857215273330   0.89061482277800
     1.51000000       0.36665022534360  -0.81007663735185   0.88918870107970
     1.52000000       0.35992501525039  -0.81151789105365   0.88775407861814
     1.53000000       0.35319591908006  -0.81289592541031   0.88631097409628
     1.54000000       0.34646357575851  -0.81421075872511   0.88485940631893
     1.55000000       0.33972862362732  -0.81546241602405   0.88339939419240
     1.56000000       0.33299170037125  -0.81665092904626   0.88193095672408
     1.57000000       0.32625344294584  -0.81777633623346   0.88045411302205
     1.58000000       0.31951448750519  -0.81883868271874   0.87896888229463
     1.59000000       0.31277546932986  -0.81983802031448   0.87747528385002
     1.60000000       0.30603702275502  -0.82077440749950   0.87597333709589
     1.61000000       0.29929978109863  -0.82164790940545   0.87446306153893
     1.62000000       0.29256437659001  -0.82245859780234   0.87294447678445
     1.63000000       0.28583144029841  -0.82320655108336   0.87141760253602
     1.64000000       0.27910160206192  -0.82389185424889   0.86988245859495
     1.65000000       0.27237549041651  -0.82451459888972   0.86833906485999
     1.66000000       0.26565373252536  -0.82507488316952   0.86678744132679
     1.67000000       0.25893695410835  -0.82557281180649   0.86522760808760
     1.68000000       0.25222577937184  -0.82600849605432   0.86365958533073
     1.69000000       0.24552083093868  -0.82638205368230   0.86208339334022
     1.70000000       0.23882272977849  -0.82669360895472   0.86049905249537
     1.71000000       0.23213209513815  -0.82694329260949   0.85890658327029
     1.72000000       0.22544954447265  -0.82713124183600   0.85730600623354
     1.73000000       0.21877569337617  -0.82725760025226   0.85569734204761
     1.74000000       0.21211115551343  -0.82732251788121   0.85408061146858
     1.75000000       0.20545654255135  -0.82732615112639   0.85245583534560
     1.76000000       0.19881246409110  -0.82726866274681   0.85082303462052
     1.77000000       0.19217952760032  -0.82715022183105   0.84918223032741
     1.78000000       0.18555833834576  -0.82697100377071   0.84753344359215
     1.79000000       0.17894949932624  -0.82673119023305   0.84587669563197
     1.80000000       0.17235361120590  -0.82643096913296   0.84421200775502
     1.81000000       0.16577127224788  -0.82607053460418   0.84253940135991
     1.82000000       0.15920307824825  -0.82565008696980   0.84085889793529
     1.83000000       0.15264962247041  -0.82516983271207   0.83917051905940
     1.84000000       0.14611149557975  -0.82462998444148   0.83747428639959
     1.85000000       0.13958928557880  -0.82403076086513   0.83577022171191
     1.86000000       0.13308357774267  -0.82337238675447   0.83405834684064
     1.87000000       0.12659495455495  -0.82265509291220   0.83233868371785
     1.88000000       0.12012399564396  -0.82187911613867   0.83061125436293
     1.89000000       0.11367127771944  -0.82104469919742   0.82887608088215
     1.90000000       0.10723737450969  -0.82015209078015   0.82713318546821
     1.91000000       0.10082285669900  -0.81920154547099   0.82538259039975
     1.92000000       0.09442829186569  -0.81819332371008   0.82362431804095
     1.93000000       0.08805424442046  -0.81712769175649   0.82185839084099
     1.94000000       0.08170127554520  -0.81600492165052   0.82008483133368
     1.95000000       0.07536994313233  -0.81482529117530   0.81830366213691
     1.96000000       0.06906080172451  -0.81358908381775   0.81651490595227
     1.97000000       0.06277440245485  -0.81229658872894   0.81471858556451
     1.98000000       0.05651129298760  -0.81094810068375   0.81291472384114
     1.99000000       0.05027201745932  -0.80954392003995   0.81110334373191
     2.00000000       0.04405711642051  -0.80808435269662   0.80928446826836
     2.01000000       0.03786712677778  -0.80656971005198   0.80745812056338
     2.02000000       0.03170258173647  -0.80500030896062   0.80562432381070
     2.03000000       0.02556401074380  -0.80337647169002   0.80378310128443
     2.04000000       0.01945193943255  -0.80169852587664   0.80193447633860
     2.05000000       0.01336688956522  -0.79996680448124   0.80007847240667
     2.06000000       0.00730937897875  -0.79818164574378   0.79821511300106
     2.07000000       0.00127992152977  -0.79634339313754   0.79634442171270
     2.08000000      -0.00472097295967  -0.79445239532289   0.79446642221051
     2.09000000      -0.01069279875571  -0.79250900610029   0.79258113824094
     2.10000000      -0.01663505426587  -0.79051358436285   0.79068859362750
     2.11000000      -0.02254724209159  -0.78846649404830   0.78878881227028
     2.12000000      -0.02842886908026  -0.78636810409039   0.78688181814545
     2.13000000      -0.03427944637661  -0.78421878836977   0.78496763530482
     2.14000000      -0.04009848947368  -0.78201892566433   0.78304628787529
     2.15000000      -0.04588551826299  -0.77976889959902   0.78111780005843
     2.16000000      -0.05164005708436  -0.77746909859509   0.77918219612998
     2.17000000      -0.05736163477492  -0.77511991581892   0.77723950043933
     2.18000000      -0.06304978471772  -0.77272174913023   0.77528973740908
     2.19000000      -0.06870404488957  -0.77027500102988   0.77333293153452
     2.20000000      -0.07432395790843  -0.76778007860710   0.77136910738316
     2.21000000      -0.07990907108004  -0.76523739348628   0.76939828959425
     2.22000000      -0.08545893644406  -0.76264736177329   0.76742050287825
     2.23000000      -0.09097311081949  -0.76001040400126   0.76543577201639
     2.24000000      -0.09645115584955  -0.75732694507596   0.76344412186014
     2.25000000      -0.10189263804585  -0.75459741422073   0.76144557733074
     2.26000000      -0.10729712883200  -0.75182224492086   0.75944016341871
     2.27000000      -0.11266420458650  -0.74900187486767   0.75742790518332
     2.28000000      -0.11799344668506  -0.74613674590202   0.75540882775215
     2.29000000      -0.12328444154222  -0.74322730395750   0.75338295632056
     2.30000000      -0.12853678065236  -0.74027399900310   0.75135031615120
     2.31000000      -0.13375006062998  -0.73727728498556   0.74931093257353
     2.32000000      -0.13892388324943  -0.73423761977127   0.74726483098328
     2.33000000      -0.14405785548385  -0.73115546508772   0.74521203684203
     2.34000000      -0.14915158954353  -0.72803128646468   0.74315257567661
     2.35000000      -0.15420470291359  -0.72486555317491   0.74108647307871
     2.36000000      -0.15921681839091  -0.72165873817450   0.73901375470429
     2.37000000      -0.16418756412044  -0.71841131804286   0.73693444627313
     2.38000000      -0.16911657363086  -0.71512377292238   0.73484857356831
     2.39000000      -0.17400348586945  -0.71179658645770   0.73275616243574
     2.40000000      -0.17884794523636  -0.70843024573462   0.73065723878360
     2.41000000      -0.18364960161813  -0.70502524121874   0.72855182858190
     2.42000000      -0.18840811042054  -0.70158206669372   0.72643995786194
     2.43000000      -0.19312313260075  -0.69810121919923   0.72432165271582
     2.44000000      -0.19779433469873  -0.69458319896863   0.72219693929593
     2.45000000      -0.20242138886800  -0.69102850936628   0.72006584381446
     2.46000000      -0.20700397290565  -0.68743765682458   0.71792839254287
     2.47000000      -0.21154177028164  -0.68381115078078   0.71578461181142
     2.48000000      -0.21603447016738  -0.68014950361345   0.71363452800864
     2.49000000      -0.22048176746363  -0.67645323057865   0.71147816758083
     2.50000000      -0.22488336282762  -0.67272284974596   0.70931555703156
     2.51000000      -0.22923896269952  -0.66895888193413   0.70714672292115
     2.52000000      -0.23354827932812  -0.66516185064654   0.70497169186618
     2.53000000      -0.23781103079580  -0.66133228200645   0.70279049053898
     2.54000000      -0.24202694104280  -0.65747070469195   0.70060314566712
     2.55000000      -0.24619573989074  -0.65357764987076   0.69840968403289
     2.56000000      -0.25031716306536  -0.64965365113477   0.69621013247283
     2.57000000      -0.25439095221866  -0.64569924443443   0.69400451787716
