#    time[fs]         Re(autocorrel)     Im(autocorrel)     Abs(autocorrel)
     0.00000000       1.00000000000000   0.00000000000000   1.00000000000000
     0.01000000       0.99996579317676  -0.00759622238348   0.99999464504472
     0.02000000       0.99986317641730  -0.01519175564466   0.99997858026803
     0.03000000       0.99969216085193  -0.02278591074464   0.99995180593730
     0.04000000       0.99945276502954  -0.03037799881141   0.99991432249817
     0.05000000       0.99914501491516  -0.03796733122315   0.99986613057450
     0.06000000       0.99876894388662  -0.04555321969169   0.99980723096838
     0.07000000       0.99832459273011  -0.05313497634571   0.99973762466009
     0.08000000       0.99781200963491  -0.06071191381411   0.99965731280806
     0.09000000       0.99723125018705  -0.06828334530909   0.99956629674886
     0.10000000       0.99658237736205  -0.07584858470932   0.99946457799714
     0.11000000       0.99586546151669  -0.08340694664293   0.99935215824560
     0.12000000       0.99508058037981  -0.09095774657041   0.99922903936494
     0.13000000       0.99422781904213  -0.09850030086738   0.99909522340377
     0.14000000       0.99330726994516  -0.10603392690729   0.99895071258860
     0.15000000       0.99231903286907  -0.11355794314391   0.99879550932375
     0.16000000       0.99126321491970  -0.12107166919371   0.99862961619125
     0.17000000       0.99013993051449  -0.12857442591808   0.99845303595082
     0.18000000       0.98894930136761  -0.13606553550532   0.99826577153974
     0.19000000       0.98769145647399  -0.14354432155254   0.99806782607280
     0.20000000       0.98636653209247  -0.15101010914728   0.99785920284216
     0.21000000       0.98497467172803  -0.15846222494896   0.99763990531730
     0.22000000       0.98351602611302  -0.16589999727012   0.99740993714489
     0.23000000       0.98199075318748  -0.17332275615736   0.99716930214869
     0.24000000       0.98039901807849  -0.18072983347217   0.99691800432942
     0.25000000       0.97874099307864  -0.18812056297135   0.99665604786467
     0.26000000       0.97701685762350  -0.19549428038731   0.99638343710875
     0.27000000       0.97522679826823  -0.20285032350795   0.99610017659259
     0.28000000       0.97337100866319  -0.21018803225643   0.99580627102355
     0.29000000       0.97144968952871  -0.21750674877043   0.99550172528535
     0.30000000       0.96946304862884  -0.22480581748132   0.99518654443786
     0.31000000       0.96741130074433  -0.23208458519282   0.99486073371701
     0.32000000       0.96529466764451  -0.23934240115946   0.99452429853458
     0.33000000       0.96311337805847  -0.24657861716465   0.99417724447808
     0.34000000       0.96086766764515  -0.25379258759836   0.99381957731055
     0.35000000       0.95855777896270  -0.26098366953454   0.99345130297041
     0.36000000       0.95618396143677  -0.26815122280804   0.99307242757130
     0.37000000       0.95374647132811  -0.27529461009124   0.99268295740186
     0.38000000       0.95124557169911  -0.28241319697026   0.99228289892557
     0.39000000       0.94868153237957  -0.28950635202072   0.99187225878053
     0.40000000       0.94605462993156  -0.29657344688317   0.99145104377932
     0.41000000       0.94336514761340  -0.30361385633800   0.99101926090873
     0.42000000       0.94061337534281  -0.31062695838000   0.99057691732960
     0.43000000       0.93779960965919  -0.31761213429240   0.99012402037659
     0.44000000       0.93492415368501  -0.32456876872048   0.98966057755797
     0.45000000       0.93198731708644  -0.33149624974477   0.98918659655539
     0.46000000       0.92898941603304  -0.33839396895364   0.98870208522366
     0.47000000       0.92593077315669  -0.34526132151556   0.98820705159052
     0.48000000       0.92281171750966  -0.35209770625072   0.98770150385638
     0.49000000       0.91963258452186  -0.35890252570227   0.98718545039412
     0.50000000       0.91639371595731  -0.36567518620694   0.98665889974880
     0.51000000       0.91309545986970  -0.37241509796518   0.98612186063745
     0.52000000       0.90973817055730  -0.37912167511080   0.98557434194877
     0.53000000       0.90632220851694  -0.38579433577996   0.98501635274290
     0.54000000       0.90284794039729  -0.39243250217975   0.98444790225115
     0.55000000       0.89931573895126  -0.39903560065607   0.98386899987569
     0.56000000       0.89572598298776  -0.40560306176100   0.98327965518935
     0.57000000       0.89207905732258  -0.41213432031961   0.98267987793526
     0.58000000       0.88837535272855  -0.41862881549614   0.98206967802661
     0.59000000       0.88461526588496  -0.42508599085959   0.98144906554635
     0.60000000       0.88079919932620  -0.43150529444870   0.98081805074690
     0.61000000       0.87692756138969  -0.43788617883632   0.98017664404981
     0.62000000       0.87300076616309  -0.44422810119315   0.97952485604553
     0.63000000       0.86901923343072  -0.45053052335085   0.97886269749302
     0.64000000       0.86498338861938  -0.45679291186450   0.97819017931950
     0.65000000       0.86089366274333  -0.46301473807440   0.97750731262008
     0.66000000       0.85675049234869  -0.46919547816723   0.97681410865748
     0.67000000       0.85255431945708  -0.47533461323655   0.97611057886167
     0.68000000       0.84830559150856  -0.48143162934258   0.97539673482954
     0.69000000       0.84400476130400  -0.48748601757133   0.97467258832460
     0.70000000       0.83965228694666  -0.49349727409305   0.97393815127658
     0.71000000       0.83524863178319  -0.49946490021997   0.97319343578111
     0.72000000       0.83079426434397  -0.50538840246327   0.97243845409939
     0.73000000       0.82628965828276  -0.51126729258948   0.97167321865780
     0.74000000       0.82173529231582  -0.51710108767599   0.97089774204757
     0.75000000       0.81713165016031  -0.52288931016597   0.97011203702437
     0.76000000       0.81247922047213  -0.52863148792247   0.96931611650799
     0.77000000       0.80777849678312  -0.53432715428182   0.96850999358195
     0.78000000       0.80302997743772  -0.53997584810623   0.96769368149310
     0.79000000       0.79823416552899  -0.54557711383572   0.96686719365127
     0.80000000       0.79339156883409  -0.55113050153920   0.96603054362886
     0.81000000       0.78850269974917  -0.55663556696481   0.96518374516046
     0.82000000       0.78356807522373  -0.56209187158951   0.96432681214245
     0.83000000       0.77858821669438  -0.56749898266787   0.96345975863261
     0.84000000       0.77356365001813  -0.57285647328004   0.96258259884969
     0.85000000       0.76849490540513  -0.57816392237897   0.96169534717304
     0.86000000       0.76338251735082  -0.58342091483681   0.96079801814216
     0.87000000       0.75822702456770  -0.58862704149052   0.95989062645630
     0.88000000       0.75302896991652  -0.59378189918661   0.95897318697406
     0.89000000       0.74778890033694  -0.59888509082516   0.95804571471293
     0.90000000       0.74250736677785  -0.60393622540294   0.95710822484886
     0.91000000       0.73718492412707  -0.60893491805571   0.95616073271587
     0.92000000       0.73182213114069  -0.61388079009971   0.95520325380557
     0.93000000       0.72641955037193  -0.61877346907232   0.95423580376674
     0.94000000       0.72097774809956  -0.62361258877182   0.95325839840486
     0.95000000       0.71549729425588  -0.62839778929640   0.95227105368171
     0.96000000       0.70997876235432  -0.63312871708218   0.95127378571487
     0.97000000       0.70442272941661  -0.63780502494052   0.95026661077727
     0.98000000       0.69882977589954  -0.64242637209434   0.94924954529676
     0.99000000       0.69320048562136  -0.64699242421367   0.94822260585559
     1.00000000       0.68753544568777  -0.65150285345029   0.94718580919002
     1.01000000       0.68183524641761  -0.65595733847146   0.94613917218976
     1.02000000       0.67610048126813  -0.66035556449285   0.94508271189757
     1.03000000       0.67033174675993  -0.66469722331052   0.94401644550872
     1.04000000       0.66452964240159  -0.66898201333204   0.94294039037055
     1.05000000       0.65869477061398  -0.67320963960675   0.94185456398196
     1.06000000       0.65282773665422  -0.67737981385506   0.94075898399292
     1.07000000       0.64692914853940  -0.68149225449693   0.93965366820399
     1.08000000       0.64099961696993  -0.68554668667936   0.93853863456580
     1.09000000       0.63503975525268  -0.68954284230312   0.93741390117858
     1.10000000       0.62905017922384  -0.69348046004839   0.93627948629161
     1.11000000       0.62303150717150  -0.69735928539968   0.93513540830274
     1.12000000       0.61698435975800  -0.70117907066967   0.93398168575791
     1.13000000       0.61090935994205  -0.70493957502231   0.93281833735055
     1.14000000       0.60480713290059  -0.70864056449483   0.93164538192113
     1.15000000       0.59867830595049  -0.71228181201897   0.93046283845664
     1.16000000       0.59252350847005  -0.71586309744124   0.92927072608999
     1.17000000       0.58634337182022  -0.71938420754224   0.92806906409959
     1.18000000       0.58013852926577  -0.72284493605511   0.92685787190872
     1.19000000       0.57390961589617  -0.72624508368298   0.92563716908505
     1.20000000       0.56765726854641  -0.72958445811559   0.92440697534008
     1.21000000       0.56138212571763  -0.73286287404493   0.92316731052861
     1.22000000       0.55508482749758  -0.73608015317991   0.92191819464819
     1.23000000       0.54876601548106  -0.73923612426024   0.92065964783858
     1.24000000       0.54242633269010  -0.74233062306919   0.91939169038116
     1.25000000       0.53606642349421  -0.74536349244560   0.91811434269844
     1.26000000       0.52968693353037  -0.74833458229486   0.91682762535344
     1.27000000       0.52328850962307  -0.75124374959895   0.91553155904918
     1.28000000       0.51687179970421  -0.75409085842564   0.91422616462809
     1.29000000       0.51043745273298  -0.75687577993665   0.91291146307144
     1.30000000       0.50398611861568  -0.75959839239494   0.91158747549880
     1.31000000       0.49751844812547  -0.76225858117107   0.91025422316742
     1.32000000       0.49103509282220  -0.76485623874862   0.90891172747170
     1.33000000       0.48453670497209  -0.76739126472864   0.90756000994261
     1.34000000       0.47802393746750  -0.76986356583326   0.90619909224708
     1.35000000       0.47149744374671  -0.77227305590826   0.90482899618744
     1.36000000       0.46495787771368  -0.77461965592481   0.90344974370082
     1.37000000       0.45840589365784  -0.77690329398022   0.90206135685859
     1.38000000       0.45184214617398  -0.77912390529778   0.90066385786573
     1.39000000       0.44526729008212  -0.78128143222571   0.89925726906027
     1.40000000       0.43868198034751  -0.78337582423511   0.89784161291269
     1.41000000       0.43208687200065  -0.78540703791706   0.89641691202529
     1.42000000       0.42548262005743  -0.78737503697876   0.89498318913164
     1.43000000       0.41886987943937  -0.78927979223876   0.89354046709592
     1.44000000       0.41224930489395  -0.79112128162127   0.89208876891239
     1.45000000       0.40562155091506  -0.79289949014959   0.89062811770470
     1.46000000       0.39898727166359  -0.79461440993854   0.88915853672533
     1.47000000       0.39234712088818  -0.79626604018607   0.88768004935498
     1.48000000       0.38570175184603  -0.79785438716393   0.88619267910191
     1.49000000       0.37905181722404  -0.79937946420738   0.88469644960140
     1.50000000       0.37239796905991  -0.80084129170410   0.88319138461505
     1.51000000       0.36574085866365  -0.80223989708212   0.88167750803021
     1.52000000       0.35908113653907  -0.80357531479688   0.88015484385936
     1.53000000       0.35241945230563  -0.80484758631735   0.87862341623944
     1.54000000       0.34575645462042  -0.80605676011138   0.87708324943128
     1.55000000       0.33909279110041  -0.80720289163000   0.87553436781893
     1.56000000       0.33242910824493  -0.80828604329094   0.87397679590905
     1.57000000       0.32576605135833  -0.80930628446129   0.87241055833027
     1.58000000       0.31910426447300  -0.81026369143913   0.87083567983255
     1.59000000       0.31244439027259  -0.81115834743450   0.86925218528657
     1.60000000       0.30578707001553  -0.81199034254931   0.86766009968306
     1.61000000       0.29913294345879  -0.81275977375650   0.86605944813219
     1.62000000       0.29248264878203  -0.81346674487828   0.86445025586289
     1.63000000       0.28583682251196  -0.81411136656355   0.86283254822225
     1.64000000       0.27919609944706  -0.81469375626444   0.86120635067486
     1.65000000       0.27256111258266  -0.81521403821199   0.85957168880215
     1.66000000       0.26593249303625  -0.81567234339102   0.85792858830177
     1.67000000       0.25931086997327  -0.81606880951416   0.85627707498692
     1.68000000       0.25269687053317  -0.81640358099497   0.85461717478569
     1.69000000       0.24609111975583  -0.81667680892036   0.85294891374045
     1.70000000       0.23949424050838  -0.81688865102205   0.85127231800717
     1.71000000       0.23290685341246  -0.81703927164729   0.84958741385476
     1.72000000       0.22632957677173  -0.81712884172875   0.84789422766442
     1.73000000       0.21976302649994  -0.81715753875362   0.84619278592900
     1.74000000       0.21320781604927  -0.81712554673182   0.84448311525233
     1.75000000       0.20666455633924  -0.81703305616353   0.84276524234855
     1.76000000       0.20013385568590  -0.81688026400583   0.84103919404147
     1.77000000       0.19361631973155  -0.81666737363861   0.83930499726391
     1.78000000       0.18711255137490  -0.81639459482969   0.83756267905702
     1.79000000       0.18062315070167  -0.81606214369914   0.83581226656962
     1.80000000       0.17414871491562  -0.81567024268284   0.83405378705756
     1.81000000       0.16768983827016  -0.81521912049530   0.83228726788303
     1.82000000       0.16124711200029  -0.81470901209169   0.83051273651393
     1.83000000       0.15482112425520  -0.81414015862914   0.82873022052314
     1.84000000       0.14841246003121  -0.81351280742730   0.82693974758792
     1.85000000       0.14202170110535  -0.81282721192815   0.82514134548921
     1.86000000       0.13564942596934  -0.81208363165506   0.82333504211098
     1.87000000       0.12929620976423  -0.81128233217118   0.82152086543952
     1.88000000       0.12296262421540  -0.81042358503706   0.81969884356284
     1.89000000       0.11664923756826  -0.80950766776761   0.81786900466995
     1.90000000       0.11035661452443  -0.80853486378827   0.81603137705018
     1.91000000       0.10408531617843  -0.80750546239061   0.81418598909256
     1.92000000       0.09783589995504  -0.80641975868712   0.81233286928513
     1.93000000       0.09160891954710  -0.80527805356541   0.81047204621423
     1.94000000       0.08540492485406  -0.80408065364166   0.80860354856390
     1.95000000       0.07922446192091  -0.80282787121347   0.80672740511515
     1.96000000       0.07306807287788  -0.80152002421201   0.80484364474530
     1.97000000       0.06693629588063  -0.80015743615350   0.80295229642735
     1.98000000       0.06082966505114  -0.79874043609013   0.80105338922926
     1.99000000       0.05474871041907  -0.79726935856026   0.79914695231330
     2.00000000       0.04869395786394  -0.79574454353800   0.79723301493538
     2.01000000       0.04266592905773  -0.79416633638222   0.79531160644437
     2.02000000       0.03666514140829  -0.79253508778491   0.79338275628143
     2.03000000       0.03069210800327  -0.79085115371893   0.79144649397938
     2.04000000       0.02474733755478  -0.78911489538519   0.78950284916195
     2.05000000       0.01883133434464  -0.78732667915922   0.78755185154318
     2.06000000       0.01294459817031  -0.78548687653717   0.78559353092672
     2.07000000       0.00708762429153  -0.78359586408125   0.78362791720518
     2.08000000       0.00126090337758  -0.78165402336454   0.78165504035943
     2.09000000      -0.00453507854478  -0.77966174091540   0.77967493045797
     2.10000000      -0.01029984014264  -0.77761940816112   0.77768761765623
     2.11000000      -0.01603290482764  -0.77552742137123   0.77569313219592
     2.12000000      -0.02173380080592  -0.77338618160014   0.77369150440438
     2.13000000      -0.02740206112740  -0.77119609462935   0.77168276469388
     2.14000000      -0.03303722373436  -0.76895757090910   0.76966694356098
     2.15000000      -0.03863883150929  -0.76667102549954   0.76764407158586
     2.16000000      -0.04420643232200  -0.76433687801138   0.76561417943167
     2.17000000      -0.04973957907609  -0.76195555254610   0.76357729784384
     2.18000000      -0.05523782975457  -0.75952747763562   0.76153345764945
     2.19000000      -0.06070074746490  -0.75705308618159   0.75948268975656
     2.20000000      -0.06612790048314  -0.75453281539411   0.75742502515356
     2.21000000      -0.07151886229745  -0.75196710673013   0.75536049490849
     2.22000000      -0.07687321165086  -0.74935640583128   0.75328913016842
     2.23000000      -0.08219053258321  -0.74670116246137   0.75121096215875
     2.24000000      -0.08747041447238  -0.74400183044344   0.74912602218263
     2.25000000      -0.09271245207481  -0.74125886759636   0.74703434162022
     2.26000000      -0.09791624556517  -0.73847273567106   0.74493595192814
     2.27000000      -0.10308140057529  -0.73564390028639   0.74283088463872
     2.28000000      -0.10820752823240  -0.73277283086455   0.74071917135944
     2.29000000      -0.11329424519645  -0.72986000056616   0.73860084377224
     2.30000000      -0.11834117369679  -0.72690588622498   0.73647593363291
     2.31000000      -0.12334794156799  -0.72391096828227   0.73434447277040
     2.32000000      -0.12831418228491  -0.72087573072077   0.73220649308624
     2.33000000      -0.13323953499694  -0.71780066099842   0.73006202655389
     2.34000000      -0.13812364456154  -0.71468624998165   0.72791110521807
     2.35000000      -0.14296616157687  -0.71153299187844   0.72575376119419
     2.36000000      -0.14776674241372  -0.70834138417103   0.72359002666765
     2.37000000      -0.15252504924659  -0.70511192754834   0.72141993389330
     2.38000000      -0.15724075008398  -0.70184512583810   0.71924351519473
     2.39000000      -0.16191351879789  -0.69854148593871   0.71706080296372
     2.40000000      -0.16654303515249  -0.69520151775082   0.71487182965959
     2.41000000      -0.17112898483202  -0.69182573410864   0.71267662780857
     2.42000000      -0.17567105946781  -0.68841465071104   0.71047523000324
     2.43000000      -0.18016895666456  -0.68496878605237   0.70826766890185
     2.44000000      -0.18462238002581  -0.68148866135305   0.70605397722778
     2.45000000      -0.18903103917847  -0.67797480048998   0.70383418776891
     2.46000000      -0.19339464979674  -0.67442772992668   0.70160833337700
     2.47000000      -0.19771293362498  -0.67084797864330   0.69937644696715
     2.48000000      -0.20198561849996  -0.66723607806636   0.69713856151714
     2.49000000      -0.20621243837216  -0.66359256199838   0.69489471006690
     2.50000000      -0.21039313332629  -0.65991796654726   0.69264492571788
     2.51000000      -0.21452744960101  -0.65621283005561   0.69038924163251
     2.52000000      -0.21861513960775  -0.65247769302979   0.68812769103358
     2.53000000      -0.22265596194882  -0.64871309806894   0.68586030720370
     2.54000000      -0.22664968143454  -0.64491958979376   0.68358712348473
     2.55000000      -0.23059606909973  -0.64109771477525   0.68130817327719
     2.56000000      -0.23449490221918  -0.63724802146334   0.67902349003972
     2.57000000      -0.23834596432243  -0.63337106011532   0.67673310728853
