Temperature,Z,E
10.0,2.4464161973491842e-76,0.15009110493646122
10.049502475123756,5.769480633975491e-76,0.15009218206773048
10.099004950247512,1.3492515842514942e-75,0.15009327168210465
10.14850742537127,3.129337651131178e-75,0.15009437376066356
10.198009900495025,7.198923860323903e-75,0.15009548828348712
10.247512375618781,1.6428192478552244e-74,0.1500966152296898
10.297014850742537,3.7193703573616905e-74,0.150097754577456
10.346517325866293,8.355182444756776e-74,0.1500989063040731
10.39601980099005,1.8625065375313924e-73,0.15010007038596598
10.445522276113806,4.1204305416408434e-73,0.15010124679872863
10.495024751237562,9.047674809846914e-73,0.15010243551715693
10.544527226361318,1.972090108727936e-72,0.1501036365152797
10.594029701485074,4.2673361101658634e-72,0.15010484976638938
10.643532176608831,9.167931749515641e-72,0.1501060752430721
10.693034651732587,1.9557511818368866e-71,0.15010731291723658
10.742537126856343,4.143105824357434e-71,0.15010856276014356
10.792039601980099,8.716664946772977e-71,0.1501098247424328
10.841542077103854,1.821493078423747e-70,0.15011109883415122
10.891044552227612,3.7809222234183685e-70,0.1501123850047788
10.940547027351368,7.796514305246224e-70,0.15011368322325455
10.990049502475124,1.5972558789275756e-69,0.1501149934580026
11.03955197759888,3.2513060686364065e-69,0.1501163156769556
11.089054452722635,6.576395805435555e-69,0.1501176498475794
11.138556927846393,1.3219087674382607e-68,0.15011899593689595
11.188059402970149,2.6407941139778144e-68,0.15012035391150635
11.237561878093905,5.2435155407698965e-68,0.15012172373761234
11.28706435321766,1.0349046650363018e-67,0.15012310538103793
11.336566828341418,2.0304958374416875e-67,0.15012449880725
11.386069303465174,3.960604221515498e-67,0.15012590398137865
11.43557177858893,7.680887424961067e-67,0.15012732086823632
11.485074253712686,1.4811001409801707e-66,0.15012874943233678
11.534576728836441,2.8399612668938103e-66,0.15013018963791377
11.584079203960197,5.415352560900495e-66,0.1501316414489382
11.633581679083955,1.0269710533254256e-65,0.1501331048291359
11.68308415420771,1.9370334256610083e-65,0.1501345797420033
11.732586629331466,3.634069770359767e-65,0.15013606615082453
11.782089104455222,6.781970984279906e-65,0.15013756401868592
11.83159157957898,1.259081696112767e-64,0.1501390733084913
11.881094054702736,2.325495623783529e-64,0.1501405939829769
11.930596529826492,4.273351552932917e-64,0.15014212600472457
11.980099004950247,7.813409439673947e-64,0.15014366933617518
12.029601480074003,1.4215375755500508e-63,0.15014522393964203
12.079103955197759,2.5736435592385705e-63,0.15014678977732285
12.128606430321517,4.636996917142605e-63,0.15014836681131188
12.178108905445272,8.314750211046902e-63,0.15014995500361122
12.227611380569028,1.4839211299990022e-62,0.15015155431614208
12.277113855692784,2.6360063860376497e-62,0.15015316471075496
12.326616330816542,4.661015423768583e-62,0.15015478614924022
12.376118805940298,8.204216077657259e-62,0.15015641859333764
12.425621281064053,1.4376055809427443e-61,0.15015806200474563
12.47512375618781,2.5079090749224593e-61,0.15015971634513034
12.524626231311565,4.3558819311369e-61,0.15016138157613396
12.57412870643532,7.532778990794472e-61,0.15016305765938298
12.623631181559078,1.297093699538637e-60,0.15016474455649617
12.673133656682834,2.2240590297152335e-60,0.15016644222909156
12.72263613180659,3.797533410378532e-60,0.15016815063879377
12.772138606930348,6.457410489895934e-60,0.15016986974724095
12.821641082054104,1.0935471712829904e-59,0.15017159951609058
12.87114355717786,1.8444186292621604e-59,0.1501733399070261
12.920646032301615,3.09845028883739e-59,0.1501750908817627
12.970148507425371,5.184567262556299e-59,0.15017685240205222
13.019650982549127,8.641378587510596e-59,0.15017862442968882
13.069153457672883,1.4347471954855514e-58,0.15018040692651394
13.11865593279664,2.3730591979484014e-58,0.15018219985442052
13.168158407920396,3.9102210779043714e-58,0.15018400317535788
13.217660883044152,6.419068964975642e-58,0.1501858168513351
13.26716335816791,1.0498782074763408e-57,0.15018764084442607
13.316665833291665,1.710881151286944e-57,0.15018947511677155
13.366168308415421,2.778001203326726e-57,0.15019131963058413
13.415670783539177,4.4946310756109073e-57,0.15019317434814997
13.465173258662933,7.246391832477557e-57,0.15019503923183336
13.514675733786689,1.164213363447886e-56,0.15019691424407797
13.564178208910445,1.8639873556544721e-56,0.15019879934741034
13.613680684034202,2.9741942607923e-56,0.15020069450444198
13.663183159157958,4.729637131742484e-56,0.1502025996778716
13.712685634281714,7.496082114892977e-56,0.15020451483048708
13.762188109405471,1.1841440676031398e-55,0.15020643992516747
13.811690584529227,1.8644635363393682e-55,0.15020837492488445
13.861193059652983,2.9261569322708707e-55,0.1502103197927042
13.910695534776739,4.5777356814213544e-55,0.15021227449178867
13.960198009900495,7.138845579905555e-55,0.1502142389853966
14.00970048502425,1.1097982269889034e-54,0.15021621323688505
14.059202960148006,1.71993966210892e-54,0.15021819720971008
14.108705435271764,2.657355896003811e-54,0.15022019086742777
14.15820791039552,4.093243136964942e-54,0.15022219417369517
14.207710385519277,6.286088010243374e-54,0.15022420709227072
14.257212860643033,9.625029357149461e-54,0.15022622958701456
14.306715335766789,1.4694193901873886e-53,0.15022826162188965
14.356217810890545,2.2367878252385746e-53,0.15023030316096164
14.4057202860143,3.395096904676633e-53,0.15023235416839917
14.455222761138057,5.138552304050298e-53,0.15023441460847436
14.504725236261812,7.755383828306791e-53,0.1502364844455625
14.554227711385568,1.1672186922002057e-52,0.15023856364414223
14.603730186509326,1.75186217850835e-52,0.15024065216879598
14.653232661633082,2.622156339209022e-52,0.15024274998420914
14.70273513675684,3.91417449049704e-52,0.15024485705517043
14.752237611880595,5.82715525606052e-52,0.15024697334657136
14.801740087004351,8.652059475663525e-52,0.1502490988234061
14.851242562128107,1.2812693568205443e-51,0.15025123345077138
14.900745037251863,1.8924778412319736e-51,0.15025337719386575
14.950247512375618,2.788058098890711e-51,0.1502555300179891
14.999749987499374,4.096986881388798e-51,0.15025769188854274
15.04925246262313,6.005234942801539e-51,0.15025986277102898
15.098754937746888,8.780290874141778e-51,0.1502620426310496
15.148257412870644,1.280595374239393e-50,0.15026423143430642
15.197759887994401,1.8631576058215832e-50,0.15026642914660013
15.247262363118157,2.704159330395794e-50,0.15026863573383015
15.296764838241913,3.9153466795210864e-50,0.1502708511619935
15.346267313365669,5.655533007363067e-50,0.1502730753971846
15.395769788489424,8.149898805128692e-50,0.15027530840559444
15.44527226361318,1.1716991110772804e-49,0.15027755015351
15.494774738736936,1.6806408741443783e-49,0.1502798006073134
15.544277213860694,2.40512849431342e-49,0.15028205973348158
15.59377968898445,3.434121590914685e-49,0.1502843274985855
15.643282164108205,4.8923378076711635e-49,0.15028660386928896
15.692784639231963,6.954242536757072e-49,0.15028888881234878
15.742287114355719,9.863362267681855e-49,0.15029118229461366
15.791789589479475,1.3958890597160984e-48,0.1502934842830233
15.84129206460323,1.971226324349303e-48,0.15029579474460808
15.890794539726986,2.777733226521625e-48,0.15029811364648824
15.940297014850742,3.9059053406906704e-48,0.15030044095587314
15.989799489974498,5.480732467243465e-48,0.1503027766400608
16.039301965098254,7.674492534968578e-48,0.1503051206664372
16.088804440222013,1.072415964533286e-47,0.15030747300247527
16.138306915345765,1.4955043146566482e-47,0.15030983361573477
16.187809390469525,2.081282468937618e-47,0.15031220247386143
16.23731186559328,2.890689179096399e-47,0.15031457954458644
16.286814340717036,4.006883756012884e-47,0.1503169647957256
16.336316815840792,5.54312829186933e-47,0.15031935819517897
16.385819290964548,7.653387924007576e-47,0.1503217597109305
16.435321766088304,1.0546559543292067e-46,0.1503241693110469
16.48482424121206,1.4505535293329591e-46,0.1503265869636774
16.53432671633582,1.991269642813069e-46,0.15032901263705395
16.58382919145957,2.7283944072039208e-46,0.15033144629948952
16.63333166658333,3.7314043046134796e-46,0.15033388791937818
16.682834141707087,5.093693089194354e-46,0.15033633746519487
16.732336616830843,6.940578811394567e-46,0.15033879490549446
16.7818390919546,9.439915682981301e-46,0.15034126020891217
16.831341567078354,1.2816133554701984e-45,0.15034373334416187
16.88084404220211,1.7368779878449144e-45,0.15034621428003708
16.930346517325866,2.349696598301256e-45,0.1503487029854097
16.97984899244962,3.1731542824514284e-45,0.15035119942923023
17.029351467573377,4.277737857757103e-45,0.15035370358052685
17.078853942697137,5.756881659491575e-45,0.15035621540840582
17.12835641782089,7.734230207154256e-45,0.15035873488205098
17.17785889294465,1.0373133603997622e-44,0.15036126197072278
17.227361368068404,1.3889041826344537e-44,0.15036379664375996
17.27686384319216,1.8565656767596628e-44,0.15036633887057635
17.326366318315916,2.477594760533956e-44,0.15036888862066414
17.375868793439672,3.30094503956231e-44,0.15037144586359122
17.425371268563428,4.3907675236996467e-44,0.15037401056900157
17.474873743687183,5.830995716163491e-44,0.1503765827066163
17.524376218810943,7.731273938292128e-44,0.150379162246232
17.573878693934695,1.0234610644293174e-43,0.15038174915772173
17.623381169058455,1.352724363027256e-43,0.15038434341103443
17.67288364418221,1.7851337230137587e-43,0.1503869449761954
17.722386119305966,2.3521300046938197e-43,0.15038955382330532
17.771888594429722,3.094472452099383e-43,0.15039216992254184
17.821391069553478,4.064921794708512e-43,0.15039479324415822
17.870893544677234,5.331673244733251e-43,0.1503974237584837
17.92039601980099,6.982742632758618e-43,0.1504000614359242
17.969898494924745,9.131562285769476e-43,0.1504027062469617
18.0194009700485,1.1924110168989897e-42,0.1504053581621548
18.06890344517226,1.5547979614598815e-42,0.1504080171521386
18.118405920296013,2.0243901762887683e-42,0.15041068318762507
18.167908395419772,2.632036372991697e-42,0.1504133562394028
18.217410870543528,3.4172128763361465e-42,0.150416036278338
18.266913345667284,4.430366798366312e-42,0.1504187232753738
18.31641582079104,5.7358766240024534e-42,0.15042141720153102
18.365918295914796,7.415787882541087e-42,0.15042411802790834
18.415420771038555,9.574520563193096e-42,0.15042682572568247
18.464923246162307,1.2344793236452882e-41,0.1504295402661085
18.514425721286067,1.5895068618310618e-41,0.1504322616205199
18.56392819640982,2.0438899191676026e-41,0.1504349897603294
18.613430671533578,2.624664269109429e-41,0.15043772465702893
18.662933146657334,3.3660129680359506e-41,0.15044046628218977
18.71243562178109,4.311100388005018e-41,0.1504432146074635
18.761938096904846,5.51436261388646e-41,0.15044596960458156
18.8114405720286,7.044364204401908e-41,0.1504487312453566
18.860943047152357,8.987356969452155e-41,0.150451499501682
18.910445522276113,1.1451707849748683e-40,0.1504542743455327
18.959947997399873,1.4573401456150594e-40,0.1504570557489655
19.009450472523625,1.8522869855500887e-40,0.15045984368411955
19.058952947647384,2.3513459613786413e-40,0.15046263812321659
19.108455422771137,2.9811916142327073e-40,0.15046543903856174
19.157957897894896,3.7751350709834195e-40,0.15046824640254391
19.20746037301865,4.774725929872436e-40,0.15047106018763576
19.256962848142408,6.031728866619518e-40,0.15047388036639445
19.306465323266163,7.610559816581661e-40,0.15047670691146292
19.35596779838992,9.591285167007919e-40,0.1504795397955688
19.40547027351368,1.2073309899234125e-39,0.1504823789915265
19.45497274863743,1.517990785416227e-39,0.15048522447223636
19.50447522376119,1.9063780212900933e-39,0.15048807621068616
19.553977698884943,2.3913868031853083e-39,0.15049093417995127
19.603480174008702,2.9963692613216155e-39,0.1504937983531949
19.652982649132458,3.7501555255663446e-39,0.15049666870366935
19.702485124256214,4.6882997455137634e-39,0.15049954520471578
19.75198759937997,5.8546006219391e-39,0.15050242782976492
19.801490074503725,7.30295495649395e-39,0.15050531655233826
19.85099254962748,9.099614773831175e-39,0.15050821134604753
19.900495024751237,1.1325933010845485e-38,0.15051111218459637
19.949997499874996,1.408170005927748e-38,0.1505140190417799
19.99949997499875,1.748919413264838e-38,0.150516931891486
20.049002450122508,2.1698093147577888e-38,0.15051985070769539
20.09850492524626,2.6891425320585125e-38,0.1505227754644826
20.14800740037002,3.329277087896813e-38,0.15052570613601612
20.197509875493775,4.117496922296984e-38,0.15052864269655927
20.24701235061753,5.087063579915149e-38,0.1505315851204705
20.296514825741287,6.278485231447386e-38,0.15053453338220463
20.346017300865043,7.741046445768148e-38,0.150537487456312
20.395519775988802,9.534650502045197e-38,0.1505404473174409
20.445022251112555,1.1732035959840541e-37,0.15054341294033666
20.494524726236314,1.4421440968425804e-37,0.1505463842998427
20.544027201360066,1.770980272026893e-37,0.1505493613709013
20.593529676483826,2.1726595919644844e-37,0.1505523441285541
20.64303215160758,2.6628433591961437e-37,0.1505553325479423
20.692534626731337,3.2604576524514387e-37,0.1505583266043076
20.742037101855093,3.988352471396759e-37,0.1505613262729924
20.79153957697885,4.87408961106267e-37,0.15056433152944115
20.841042052102605,5.95088355225648e-37,0.1505673423491996
20.89054452722636,7.258724073839267e-37,0.15057035870791663
20.94004700235012,8.845714486798898e-37,0.15057338058134404
20.989549477473872,1.0769665489035802e-36,0.15057640794533728
21.03905195259763,1.3099991795217401e-36,0.150579440775856
21.088554427721387,1.5919967083800353e-36,0.1505824790489648
21.138056902845143,1.9329402627314316e-36,0.150585522740833
21.1875593779689,2.3447826468479874e-36,0.1505885718277363
21.237061853092655,2.8418253447314392e-36,0.15059162628605643
21.28656432821641,3.441165208940709e-36,0.15059468609228194
21.336066803340167,4.1632232698863036e-36,0.15059775122300878
21.385569278463926,5.032370238333009e-36,0.1506008216549405
21.43507175358768,6.07766576606021e-36,0.15060389736488908
21.484574228711438,7.333731431856034e-36,0.15060697832977568
21.53407670383519,8.841780797027952e-36,0.15061006452663014
21.58357917895895,1.0650833800984058e-35,0.15061315593259247
21.633081654082705,1.2819147328910473e-35,0.15061625252491287
21.68258412920646,1.5415899078807229e-35,0.15061935428095208
21.732086604330217,1.8523167997350454e-35,0.15062246117818204
21.781589079453973,2.223826167327271e-35,0.1506255731941865
21.831091554577732,2.667644932228299e-35,0.15062869030666093
21.880594029701484,3.197416853987188e-35,0.15063181249341348
21.930096504825244,3.829278503338508e-35,0.15063493973236536
21.979598979948996,4.582299729644702e-35,0.15063807200155083
22.029101455072755,5.478999291334701e-35,0.15064120927911814
22.07860393019651,6.54594801709482e-35,0.15064435154332936
22.128106405320267,7.814473824542736e-35,0.15064749877256145
22.177608880444023,9.321485180185907e-35,0.150650650945306
22.22711135556778,1.1110432183145637e-34,0.15065380804017028
22.276613830691534,1.3232427444949852e-34,0.15065697003587664
22.32611630581529,1.574755237510756e-34,0.15066013691126426
22.37561878093905,1.8726378431380389e-34,0.15066330864528807
22.425121256062802,2.22517374276698e-34,0.1506664852170199
22.47462373118656,2.6420780194247466e-34,0.150669666605649
22.524126206310314,3.1347368848833465e-34,0.15067285279048143
22.573628681434073,3.7164854769792817e-34,0.15067604375094165
22.62313115655783,4.402930218561763e-34,0.15067923946657116
22.672633631681585,5.212322624544028e-34,0.15068243991703084
22.72213610680534,6.165992466913928e-34,0.15068564508209992
22.771638581929096,7.28884937688227e-34,0.15068885494167603
22.821141057052856,8.609963298546273e-34,0.15069206947577618
22.870643532176608,1.016323573202243e-33,0.15069528866453724
22.920146007300367,1.1988175441430277e-33,0.1506985124882154
22.96964848242412,1.4130794283069593e-33,0.15070174092718638
23.01915095754788,1.6644641064080813e-33,0.1507049739619474
23.068653432671635,1.959199390829221e-33,0.15070821157311445
23.11815590779539,2.304523452505466e-33,0.150711453741425
23.167658382919146,2.7088431094969803e-33,0.1507147004477375
23.217160858042902,3.181916025571319e-33,0.15071795167303076
23.266663333166658,3.735060295031266e-33,0.15072120739840514
23.316165808290414,4.381395375522597e-33,0.15072446760508268
23.365668283414173,5.136118881043556e-33,0.15072773227440653
23.415170758537926,6.016824371173626e-33,0.15073100138784132
23.464673233661685,7.043865978976284e-33,0.15073427492697405
23.514175708785437,8.240776519567115e-33,0.1507375528735135
23.563678183909197,9.634746625716242e-33,0.1507408352092909
23.613180659032952,1.1257173479181867e-32,0.1507441219162588
23.66268313415671,1.3144288861491472e-32,0.1507474129764929
23.712185609280464,1.5337877551994827e-32,0.15075070837219137
23.76168808440422,1.7886098572656842e-32,0.15075400808567438
23.81119055952798,2.0844423438735711e-32,0.1507573120993852
23.86069303465173,2.4276707445188712e-32,0.15076062039588942
23.91019550977549,2.8256412125977615e-32,0.15076393295787566
23.959697984899243,3.2867999395946997e-32,0.15076724976815511
24.009200460023003,3.8208520554572807e-32,0.15077057080966222
24.05870293514676,4.438942633300073e-32,0.15077389606545377
24.108205410270514,5.153862754011073e-32,0.15077722551870995
24.15770788539427,5.980283965373659e-32,0.15078055915273367
24.207210360518026,6.935024895868702e-32,0.15078389695095026
24.256712835641782,8.037354260830567e-32,0.15078723889690945
24.306215310765538,9.309335034143032e-32,0.15079058497428213
24.355717785889297,1.0776215158906684e-31,0.15079393516686324
24.40522026101305,1.2466870842940076e-31,0.15079728945857
24.45472273613681,1.4414309237885302e-31,0.15080064783344296
24.504225211260565,1.6656238143236882e-31,0.15080401027564502
24.55372768638432,1.9235711319012835e-31,0.1508073767694622
24.603230161508076,2.2201859044263896e-31,0.1508107472993027
24.652732636631832,2.561071473571509e-31,0.15081412184969784
24.702235111755588,2.9526149755323456e-31,0.1508175004053012
24.751737586879344,3.4020930002722935e-31,0.15082088295088839
24.801240062003103,3.917790952532734e-31,0.15082426947135827
24.850742537126855,4.509137820390173e-31,0.15082765995173103
24.900245012250615,5.186858260540878e-31,0.15083105437714908
24.949747487374367,5.963144136051672e-31,0.15083445273287754
24.999249962498126,6.851847894568336e-31,0.15083785500430252
25.048752437621882,7.8687004556593395e-31,0.1508412611769321
25.098254912745638,9.031556588186995e-31,0.1508446712363958
25.147757387869394,1.0360671105669673e-30,0.15084808516844525
25.19725986299315,1.1879009593264303e-30,0.15085150295895225
25.24676233811691,1.3612597808321304e-30,0.15085492459390995
25.29626481324066,1.5590914371946972e-30,0.15085835005943302
25.34576728836442,1.784733189658553e-30,0.15086177934175612
25.395269763488173,2.0419612279728936e-30,0.1508652124272343
25.444772238611932,2.33504625424622e-30,0.15086864930234364
25.494274713735688,2.6688158310179433e-30,0.15087208995367968
25.543777188859444,3.0487242828687152e-30,0.15087553436795786
25.5932796639832,3.4809310289904826e-30,0.15087898253201357
25.642782139106956,3.972388321616993e-30,0.15088243443280092
25.69228461423071,4.5309394730215535e-30,0.15088589005739406
25.741787089354467,5.165428772964353e-30,0.1508893493929854
25.791289564478227,5.885824430150578e-30,0.1508928124268861
25.84079203960198,6.703356016700211e-30,0.15089627914652615
25.89029451472574,7.630668055180379e-30,0.15089974953945282
25.93979698984949,8.681991564918554e-30,0.15090322359333197
25.98929946497325,9.873335579731085e-30,0.15090670129594677
26.038801940097006,1.122270086462963e-29,0.15091018263519748
26.08830441522076,1.2750318296500996e-29,0.1509136675991015
26.137806890344518,1.4478914635265893e-29,0.15091715617579307
26.187309365468273,1.643400869998884e-29,0.15092064835352237
26.23681184059203,1.8644241281325508e-29,0.150924144120656
