Temperature,Z,E
10.0,1.568735006647189e-77,0.15253706015423005
10.049502475123756,3.751706639696229e-77,0.15253875047421106
10.099004950247512,8.896106323149312e-77,0.15254045063822477
10.14850742537127,2.0917854308036206e-76,0.15254216054425856
10.198009900495025,4.8779078542855784e-76,0.1525438800913341
10.247512375618781,1.1282400809689911e-75,0.15254560917952886
10.297014850742537,2.588642700415966e-75,0.15254734770999223
10.346517325866293,5.892445211001727e-75,0.15254909558496382
10.39601980099005,1.3308254448534418e-74,0.15255085270778848
10.445522276113806,2.9826139850858655e-74,0.15255261898292982
10.495024751237562,6.633928928556004e-74,0.15255439431598258
10.544527226361318,1.4644983897240548e-73,0.1525561786136848
10.594029701485074,3.2092011661583395e-73,0.15255797178392666
10.643532176608831,6.981355173889333e-73,0.15255977373575913
10.693034651732587,1.5078607424553009e-72,0.1525615843794029
10.742537126856343,3.233736250041341e-72,0.15256340362625284
10.792039601980099,6.886715996832101e-72,0.15256523138888414
10.841542077103854,1.4565505230264454e-71,0.15256706758105643
10.891044552227612,3.059747323431873e-71,0.1525689121177167
10.940547027351368,6.384579402442904e-71,0.15257076491500107
10.990049502475124,1.3234425903771914e-70,0.1525726258902366
11.03955197759888,2.7254779116735384e-70,0.15257449496194114
11.089054452722635,5.576772676985127e-70,0.15257637204982233
11.138556927846393,1.1338699015114684e-69,0.15257825707477643
11.188059402970149,2.2909739800505415e-69,0.15258014995888608
11.237561878093905,4.600337762700275e-69,0.15258205062541683
11.28706435321766,9.181365410447516e-69,0.15258395899881352
11.336566828341418,1.8214093227221933e-68,0.1525858750046956
11.386069303465174,3.5919038536921902e-68,0.1525877985698519
11.43557177858893,7.0419390280924035e-68,0.15258972962223483
11.485074253712686,1.3725974655544875e-67,0.1525916680909535
11.534576728836441,2.6601731114071113e-67,0.1525936139062671
11.584079203960197,5.1265385361570236e-67,0.1525955669995768
11.633581679083955,9.824658806916586e-67,0.15259752730341788
11.68308415420771,1.872493955368211e-66,0.15259949475145104
11.732586629331466,3.54946846391915e-66,0.15260146927845272
11.782089104455222,6.692307910772869e-66,0.15260345082030616
11.83159157957898,1.2551263554449495e-65,0.15260543931399126
11.881094054702736,2.3416753550805584e-65,0.15260743469757354
11.930596529826492,4.3463220687651206e-65,0.1526094369101943
11.980099004950247,8.026032666443522e-65,0.15261144589205855
12.029601480074003,1.4746572686466649e-64,0.15261346158442401
12.079103955197759,2.6959965466955672e-64,0.1526154839295898
12.128606430321517,4.904696052555003e-64,0.15261751287088332
12.178108905445272,8.879641585683536e-64,0.15261954835264874
12.227611380569028,1.5999078173622608e-63,0.1526215903202344
12.277113855692784,2.86903518494118e-63,0.15262363871997978
12.326616330816542,5.120860870537276e-63,0.15262569349920257
12.376118805940298,9.097889731951751e-63,0.15262775460618566
12.425621281064053,1.608988587550292e-62,0.15262982199016378
12.47512375618781,2.832718981954937e-62,0.1526318956013104
12.524626231311565,4.964957254918466e-62,0.1526339753907232
12.57412870643532,8.66386982801169e-62,0.1526360613104114
12.623631181559078,1.5052728870761624e-61,0.15263815331328132
12.673133656682834,2.6040400310824613e-61,0.15264025135312292
12.72263613180659,4.485708053229233e-61,0.1526423553845956
12.772138606930348,7.694612984056718e-61,0.15264446536321427
12.821641082054104,1.3144260264206877e-60,0.15264658124533503
12.87114355717786,2.236144940747852e-60,0.1526487029881416
12.920646032301615,3.788774002971178e-60,0.15265083054963127
12.970148507425371,6.393705208345056e-60,0.1526529638885998
13.019650982549127,1.0746859525953329e-59,0.15265510296462875
13.069153457672883,1.7993066658212525e-59,0.15265724773807005
13.11865593279664,3.0008394472626164e-59,0.15265939817003313
13.168158407920396,4.985552538294562e-59,0.15266155422237
13.217660883044152,8.251549828243594e-59,0.15266371585766184
13.26716335816791,1.3605919432825543e-58,0.15266588303920473
13.316665833291665,2.235159785041154e-58,0.1526680557309961
13.366168308415421,3.6584360681584044e-58,0.15267023389772094
13.415670783539177,5.966315553967253e-58,0.15267241750473728
13.465173258662933,9.695231911326286e-58,0.15267460651806408
13.514675733786689,1.569887543129448e-57,0.1526768009043664
13.564178208910445,2.5331104034129108e-57,0.1526790006309426
13.613680684034202,4.07316081340275e-57,0.15268120566571092
13.663183159157958,6.527054619672618e-57,0.15268341597719604
13.712685634281714,1.042383049565922e-56,0.15268563153451628
13.762188109405471,1.6591198419453393e-56,0.15268785230737053
13.811690584529227,2.6319897161200753e-56,0.15269007826602563
13.861193059652983,4.16161691536637e-56,0.15269230938130282
13.910695534776739,6.558835524159438e-56,0.15269454562456652
13.960198009900495,1.0303698426614334e-55,0.15269678696771072
14.00970048502425,1.6135265454250232e-55,0.1526990333831475
14.059202960148006,2.5187802346042407e-55,0.15270128484379414
14.108705435271764,3.919674731405703e-55,0.15270354132306166
14.15820791039552,6.080923996706939e-55,0.1527058027948431
14.207710385519277,9.40508922609838e-55,0.15270806923350122
14.257212860643033,1.450253338147515e-54,0.15271034061385771
14.306715335766789,2.2295953803292592e-54,0.15271261691118143
14.356217810890545,3.4176131160489326e-54,0.1527148981011772
14.4057202860143,5.22333218518514e-54,0.15271718415997462
14.455222761138057,7.960005482738677e-54,0.15271947506411795
14.504725236261812,1.2095754023316897e-53,0.1527217707905547
14.554227711385568,1.8328169683798407e-53,0.1527240713166252
14.603730186509326,2.769391516140908e-53,0.1527263766200524
14.653232661633082,4.172929984005407e-53,0.1527286866789318
14.70273513675684,6.2704906074962485e-53,0.1527310014717214
14.752237611880595,9.396749903576611e-53,0.15273332097723152
14.801740087004351,1.404369587220873e-52,0.15273564517461574
14.851242562128107,2.0932663153649955e-52,0.1527379740433609
14.900745037251863,3.1118484584473752e-52,0.1527403075632778
14.950247512375618,4.6139691964414275e-52,0.15274264571449228
14.999749987499374,6.823457633356089e-52,0.1527449884774371
15.04925246262313,1.0065120475734988e-51,0.15274733583284061
15.098754937746888,1.48091145378244e-51,0.15274968776172151
15.148257412870644,2.1734300439076676e-51,0.1527520442453776
15.197759887994401,3.181847654721657e-51,0.15275440526537903
15.247262363118157,4.646658794173544e-51,0.15275677080355982
15.296764838241913,6.769245687245478e-51,0.15275914084200978
15.346267313365669,9.837576800839651e-51,0.15276151536306684
15.395769788489424,1.4262462012765616e-50,0.1527638943493098
15.44527226361318,2.0628582302062065e-50,0.15276627778355023
15.494774738736936,2.9766149790922544e-50,0.15276866564882574
15.544277213860694,4.2851309671544625e-50,0.15277105792839296
15.59377968898445,6.154649508544076e-50,0.15277345460572053
15.643282164108205,8.819619568533832e-50,0.15277585566448135
15.692784639231963,1.2609941447997306e-49,0.15277826108854817
15.742287114355719,1.7988802423177007e-49,0.15278067086198474
15.791789589479475,2.5605104609169193e-49,0.15278308496904125
15.84129206460323,3.636595694186543e-49,0.15278550339414756
15.890794539726986,5.1536696692423214e-49,0.15278792612190717
15.940297014850742,7.287860448697651e-49,0.15279035313709147
15.989799489974498,1.0283812224311851e-48,0.15279278442463412
16.039301965098254,1.4480629797474116e-48,0.15279521996962592
16.088804440222013,2.034737935179457e-48,0.1527976597573088
16.138306915345765,2.8531566949342814e-48,0.15280010377307057
16.187809390469525,3.9925205934593357e-48,0.15280255200244106
16.23731186559328,5.575467566220635e-48,0.15280500443108538
16.286814340717036,7.770269802457233e-48,0.15280746104480078
16.336316815840792,1.0807358810997092e-47,0.1528099218295108
16.385819290964548,1.5001669831758205e-47,0.1528123867712618
16.435321766088304,2.0782796965210476e-47,0.15281485585621754
16.48482424121206,2.8735612029108504e-47,0.15281732907065557
16.53432671633582,3.965487503809235e-47,0.15281980640096324
16.58382919145957,5.461851894623838e-47,0.15282228783363322
16.63333166658333,7.508581264570772e-47,0.15282477335526015
16.682834141707087,1.0302860695743833e-46,0.15282726295253646
16.732336616830843,1.4110649484648388e-46,0.15282975661224935
16.7818390919546,1.9290015895944873e-46,0.15283225432127634
16.831341567078354,2.632216820355342e-46,0.15283475606658325
16.88084404220211,3.585264753739491e-46,0.15283726183521965
16.930346517325866,4.874591453816283e-46,0.1528397716143164
16.97984899244962,6.615755932786886e-46,0.15284228539108263
17.029351467573377,8.962966026810015e-46,0.15284480315280313
17.078853942697137,1.2121649788261397e-45,0.1528473248868343
17.12835641782089,1.6365000688785363e-45,0.152849850580603
17.17785889294465,2.2055716302994725e-45,0.1528523802216031
17.227361368068404,2.967451329781687e-45,0.1528549137973929
17.27686384319216,3.9857469498926396e-45,0.15285745129559344
17.326366318315916,5.344484581652312e-45,0.15285999270388542
17.375868793439672,7.154481406793121e-45,0.1528625380100075
17.425371268563428,9.561650838328247e-45,0.15286508720175435
17.474873743687183,1.2757808762242447e-44,0.1528676402669737
17.524376218810943,1.6994711954098553e-44,0.15287019719356604
17.573878693934695,2.2602266959614456e-44,0.15287275796948105
17.623381169058455,3.0012111836676065e-44,0.1528753225827173
17.67288364418221,3.9788109271744505e-44,0.15287789102131918
17.722386119305966,5.266571670031916e-44,0.152880463273377
17.771888594429722,6.96027410140821e-44,0.15288303932702418
17.821391069553478,9.184467209386733e-44,0.15288561917043608
17.870893544677234,1.2100865813918733e-43,0.15288820279182933
17.92039601980099,1.591912832672537e-43,0.15289079017945983
17.969898494924745,2.0910669239037926e-43,0.15289338132162184
18.0194009700485,2.742633525447425e-43,0.15289597620664716
18.06890344517226,3.591899339621986e-43,0.1528985748229032
18.118405920296013,4.697235504839537e-43,0.15290117715879314
18.167908395419772,6.1337705667655686e-43,0.15290378320275447
18.217410870543528,7.998064308007481e-43,0.15290639294325772
18.266913345667284,1.0414046921673405e-42,0.15290900636880644
18.31641582079104,1.3540555723262616e-42,0.15291162346793627
18.365918295914796,1.758088607740089e-42,0.15291424422921404
18.415420771038555,2.2794878486369216e-42,0.15291686864123713
18.464923246162307,2.951419478935661e-42,0.15291949669263316
18.514425721286067,3.816159923234322e-42,0.1529221283720597
18.56392819640982,4.9275262250845996e-42,0.1529247636682031
18.613430671533578,6.353935531298783e-42,0.15292740256977885
18.662933146657334,8.182251530707233e-42,0.1529300450655309
18.71243562178109,1.0522614043781924e-41,0.1529326911442315
18.761938096904846,1.3514495317075625e-41,0.15293534079468074
18.8114405720286,1.7334284987806669e-41,0.1529379940057065
18.860943047152357,2.220477764070894e-41,0.15294065076616434
18.910445522276113,2.8407025414594815e-41,0.1529433110649374
18.959947997399873,3.629512691791274e-41,0.1529459748909361
19.009450472523625,4.631465725977155e-41,0.1529486422330986
19.058952947647384,5.90256077285428e-41,0.15295131308039
19.108455422771137,7.513090413695839e-41,0.15295398742180363
19.157957897894896,9.551181806746309e-41,0.15295666524635945
19.20746037301865,1.2127188482477832e-40,0.15295934654310597
19.256962848142408,1.5379130746311318e-40,0.15296203130111893
19.306465323266163,1.947942718282685e-40,0.15296471950950258
19.35596779838992,2.4643214003807923e-40,0.15296741115738885
19.40547027351368,3.113861495525858e-40,0.15297010623393886
19.45497274863743,3.929940464037016e-40,0.152972804728342
19.50447522376119,4.954060536164493e-40,0.1529755066298165
19.553977698884943,6.23776754569653e-40,0.1529782119276106
19.603480174008702,7.845008982041414e-40,0.152980920611002
19.652982649132458,9.855028590872676e-40,0.1529836326692987
19.702485124256214,1.236591570767184e-39,0.15298634809183873
19.75198759937997,1.549895267715234e-39,0.15298906686799155
19.801490074503725,1.9403934055170924e-39,0.15299178898715798
19.85099254962748,2.4265667834017934e-39,0.15299451443877032
19.900495024751237,3.031191289830103e-39,0.1529972432122938
19.949997499874996,3.7823059759880407e-39,0.152999975297226
19.99949997499875,4.714392506292095e-39,0.15300271068309776
20.049002450122508,5.869810644376578e-39,0.1530054493594745
20.09850492524626,7.300543550566452e-39,0.15300819131595547
20.14800740037002,9.070317580561123e-39,0.15301093654217549
20.197509875493775,1.1257174325826675e-38,0.1530136850278042
20.24701235061753,1.3956588227162085e-38,0.15301643676254822
20.296514825741287,1.7285241700238896e-38,0.15301919173615042
20.346017300865043,2.13855918977165e-38,0.1530219499383917
20.395519775988802,2.6431389659488107e-38,0.1530247113590901
20.445022251112555,3.263434265145653e-38,0.15302747598810335
20.494524726236314,4.0252152082807804e-38,0.15303024381532754
20.544027201360066,4.959819680237843e-38,0.15303301483069964
20.593529676483826,6.105319127571879e-38,0.15303578902419687
20.64303215160758,7.507920642529634e-38,0.15303856638583735
20.692534626731337,9.223651632392516e-38,0.1530413469056821
20.742037101855093,1.1320382131227613e-37,0.153044130573834
20.79153957697885,1.3880250166071039e-37,0.15304691738043974
20.841042052102605,1.7002567821526802e-37,0.15304970731569004
20.89054452722636,2.0807300083056936e-37,0.15305250036982015
20.94004700235012,2.543922556205485e-37,0.15305529653311112
20.989549477473872,3.1072908260867345e-37,0.15305809579588986
21.03905195259763,3.7918633142783536e-37,0.15306089814853002
21.088554427721387,4.622948603555823e-37,0.15306370358145346
21.138056902845143,5.630979102117728e-37,0.1530665120851295
21.1875593779689,6.8525156767357695e-37,0.15306932365007725
21.237061853092655,8.33144281882145e-37,0.1530721382668648
21.28656432821641,1.0120389248539488e-36,0.15307495592611114
21.336066803340167,1.2282415029586376e-36,0.15307777661848607
21.385569278463926,1.4893013484019785e-36,0.15308060033471124
21.43507175358768,1.8042484634140307e-36,0.15308342706556102
21.484574228711438,2.1838746755358397e-36,0.15308625680186294
21.53407670383519,2.6410664129594108e-36,0.15308908953449835
21.58357917895895,3.191198250805395e-36,0.15309192525440318
21.633081654082705,3.852597943089673e-36,0.1530947639525688
21.68258412920646,4.647095476199927e-36,0.15309760562004263
21.732086604330217,5.6006707985974106e-36,0.1531004502479285
21.781589079453973,6.744217344957789e-36,0.15310329782738802
21.831091554577732,8.114441334885077e-36,0.1531061483496405
21.880594029701484,9.754920148541354e-36,0.1531090018059641
21.930096504825244,1.171734693510765e-35,0.15311185818769657
21.979598979948996,1.4062993076505255e-35,0.15311471748623545
22.029101455072755,1.6864425301860805e-35,0.1531175796930389
22.07860393019651,2.0207520235021088e-35,0.15312044479962683
22.128106405320267,2.419382608092435e-35,0.1531233127975808
22.177608880444023,2.894332915735521e-35,0.1531261836785454
22.22711135556778,3.4597692217448535e-35,0.15312905743422806
22.276613830691534,4.132404216898584e-35,0.1531319340564004
22.32611630581529,4.931939708902511e-35,0.15313481353689837
22.37561878093905,5.881583659625179e-35,0.153137695867623
22.425121256062802,7.008653595183672e-35,0.15314058104054146
22.47462373118656,8.345280302400693e-35,0.15314346904768664
22.524126206310314,9.92922788264478e-35,0.15314635988115896
22.573628681434073,1.1804848712992226e-34,0.15314925353312578
22.62313115655783,1.4024194710875773e-34,0.15315214999582286
22.672633631681585,1.6648309564137192e-34,0.15315504926155415
22.72213610680534,1.9748730332879513e-34,0.1531579513226933
22.771638581929096,2.3409231120014077e-34,0.1531608561716833
22.821141057052856,2.7727846420218455e-34,0.15316376380103747
22.870643532176608,3.281921737858317e-34,0.15316667420333968
22.920146007300367,3.881731061858611e-34,0.15316958737124572
22.96964848242412,4.587856664497804e-34,0.15317250329748233
23.01915095754788,5.418554321629292e-34,0.1531754219748489
23.068653432671635,6.395112865571056e-34,0.15317834339621786
23.11815590779539,7.54234109883047e-34,0.153181267554534
23.167658382919146,8.889130123823726e-34,0.1531841944428169
23.217160858042902,1.0469102339537325e-33,0.15318712405415966
23.266663333166658,1.232135996975436e-33,0.15319005638172997
23.316165808290414,1.4491347823174964e-33,0.15319299141877085
23.365668283414173,1.7031847072740362e-33,0.15319592915860047
23.415170758537926,2.000411921263587e-33,0.15319886959461293
23.464673233661685,2.347922204384176e-33,0.15320181272027927
23.514175708785437,2.753952259430669e-33,0.15320475852914575
23.563678183909197,3.228043534469973e-33,0.15320770701483724
23.613180659032952,3.781241805766246e-33,0.15321065817105517
23.66268313415671,4.426326195663296e-33,0.15321361199157935
23.712185609280464,5.1780718035623315e-33,0.15321656847026663
23.76168808440422,6.0535506978056696e-33,0.15321952760105398
23.81119055952798,7.072476660389682e-33,0.15322248937795616
23.86069303465173,8.257599804277842e-33,0.15322545379506688
23.91019550977549,9.635158005089449e-33,0.15322842084656024
23.959697984899243,1.1235393016712592e-32,0.1532313905266892
24.009200460023003,1.309314018697696e-32,0.15323436282978756
24.05870293514676,1.524850186941342e-32,0.1532373377502693
24.108205410270514,1.7747615956595414e-32,0.15324031528262813
24.15770788539427,2.0643532457673222e-32,0.15324329542143972
24.207210360518026,2.3997212727689843e-32,0.1532462781613607
24.256712835641782,2.787866785162576e-32,0.1532492634971284
24.306215310765538,3.236825481692189e-32,0.15325225142356277
24.355717785889297,3.755815150242359e-32,0.15325524193556445
24.40522026101305,4.355403420032787e-32,0.153258235028117
24.45472273613681,5.047698440543122e-32,0.1532612306962856
24.504225211260565,5.846565499109209e-32,0.1532642289352185
24.55372768638432,6.767872968669375e-32,0.1532672297401457
24.603230161508076,7.82977140242926e-32,0.15327023310638074
24.652732636631832,9.053010068532838e-32,0.15327323902931975
24.702235111755588,1.046129575100753e-31,0.15327624750444152
24.751737586879344,1.2081699239773487e-31,0.15327925852730886
24.801240062003103,1.3945115599547079e-31,0.15328227209356723
24.850742537126855,1.6086785052965057e-31,0.15328528819894585
24.900245012250615,1.8546882146045054e-31,0.15328830683925734
24.949747487374367,2.1371181793851814e-31,0.15329132801039824
24.999249962498126,2.4611811841831427e-31,0.15329435170834843
25.048752437621882,2.8328102935491664e-31,0.153297377929172
25.098254912745638,3.2587547781234377e-31,0.15330040666901631
25.147757387869394,3.7466883318597514e-31,0.15330343792411355
25.19725986299315,4.305331092509633e-31,0.1533064716907792
25.24676233811691,4.944587155685162e-31,0.1533095079654132
25.29626481324066,5.675699471088534e-31,0.15331254674449946
25.34576728836442,6.511424229981448e-31,0.1533155880246054
25.395269763488173,7.46622709803287e-31,0.15331863180238336
25.444772238611932,8.556503919961943e-31,0.1533216780745696
25.494274713735688,9.80082882472251e-31,0.1533247268379838
25.543777188859444,1.1220232995562613e-30,0.15332777808953088
25.5932796639832,1.2838517741566857e-30,0.1533308318261988
25.642782139106956,1.4682605920119389e-30,0.15333388804506007
25.69228461423071,1.6782936217271676e-30,0.15333694674327092
25.741787089354467,1.9173905299900367e-30,0.15334000791807179
25.791289564478227,2.189436341484792e-30,0.1533430715667869
25.84079203960198,2.4988169631511546e-30,0.15334613768682406
25.89029451472574,2.850481361167183e-30,0.15334920627567544
25.93979698984949,3.250011155041345e-30,0.1533522773309155
25.98929946497325,3.703698477212586e-30,0.15335535085020463
26.038801940097006,4.218633039373837e-30,0.15335842683128414
26.08830441522076,4.802799449241998e-30,0.15336150527197992
26.137806890344518,5.465185934643092e-30,0.15336458617020124
26.187309365468273,6.215905756632303e-30,0.15336766952394046
26.23681184059203,7.066332731054104e-30,0.1533707553312722
