temperature,internal energy,partition function,free energy,chemical entropy
2999.9999999999995,2.269278384538293,52330331.605686426,-4.594698338498836,0.0022879922410123767
2999.2073257628413,2.2685733472793808,52209086.47719153,-4.592884799149031,0.0022877571975399255
2998.445820679805,2.2678961235527915,52092848.67112614,-4.59114274639777,0.0022875313679656503
2997.4885279288824,2.2670449070544105,51947058.093101494,-4.588953045100853,0.0022872474367374553
2996.373366330468,2.2660534913434693,51777691.166438274,-4.586402579041267,0.002286916626407159
2995.12685525475,2.2649455262035247,51588967.633659646,-4.5835521426377905,0.0022865467807569096
2993.7705362900765,2.26374022723475,51384327.21084088,-4.58045112883217,0.0022861442696100356
2992.3172370821053,2.2624490576020113,51165870.92462379,-4.5771289906329775,0.0022857128794620918
2990.7798654667704,2.261083544961866,50935693.22163576,-4.573615351388512,0.002285256422670108
2989.1631773581007,2.2596479707189197,50694652.41936436,-4.569921192597699,0.002284776292926493
2987.473051206083,2.2581476108759415,50443767.56878776,-4.566060056699063,0.002284274217911348
2985.7136456599314,2.256586211898857,50183794.10315552,-4.562041551860058,0.00228375141523386
2983.8876989204095,2.254966258010056,49915272.29914373,-4.557872038886869,0.0022832086808635115
2981.9981307113517,2.253290393364818,49638765.25276659,-4.553558291116155,0.0022826468649922355
2980.0472438523075,2.2515607137329434,49354741.53989555,-4.549105671294997,0.0022820666347009716
2978.037924984815,2.2497798311972557,49063750.32955043,-4.544520872305008,0.0022814688310381095
2975.9720770740896,2.2479494844660626,48766193.366867036,-4.539808339721799,0.002280854002790724
2973.8533060467153,2.2460729192883098,48462712.079910666,-4.534976400560964,0.002280223206054385
2971.6832671971047,2.2441516513460877,48153661.31426054,-4.530028928812391,0.002279576916872401
2969.464688252405,2.242188144243048,47839543.64294829,-4.524972240641406,0.0022789159310956735
2967.1991848021826,2.24018387524775,47520697.95910719,-4.519810113542314,0.0022782407138065928
2964.88904658401,2.2381409164218407,47197552.95490372,-4.514547858139395,0.0022775519314428747
2962.536697436088,2.2360614560093475,46870549.074009955,-4.509191085991661,0.0022768502911166134
2960.145388691823,2.2339484106308403,46540233.08082546,-4.503747287075614,0.0022761367476899653
2957.7154813941256,2.2318021404864905,46206745.49157535,-4.498217366992802,0.002275411394305947
2955.2491705072052,2.2296246246873355,45870475.272218734,-4.492606403282909,0.002274674871769448
2952.749292595514,2.2274184057480535,45531890.48423907,-4.486920927276609,0.002273928013415135
2950.2172868192893,2.225184789929735,45191261.78105648,-4.481164286426144,0.0022731712360028163
2947.6567498474465,2.222926983728989,44849141.977464564,-4.475344727579348,0.0022724056020617055
2945.066827701361,2.220644266582333,44505482.184999526,-4.469460377193719,0.002271630844111511
2942.4504750432475,2.218339274213811,44160736.73925659,-4.4635180140357935,0.0022708478341173766
2939.809194900541,2.2160133599699785,43815159.69253175,-4.45752111305929,0.0022700570107084947
2937.1449758936537,2.2136683023786046,43469062.23139894,-4.451474247036862,0.0022692589586550916
2934.459215652765,2.2113053571577423,43122672.011604264,-4.445380642313514,0.0022684540865191365
2931.7540003206527,2.208926383289535,42776299.10590106,-4.43924508252206,0.0022676430099812157
2929.0311979908656,2.20653304490205,42430217.95842506,-4.433071850661369,0.0022668262803475013
2926.292876363137,2.204127178527356,42084720.893745795,-4.426865676279229,0.0022660045097904666
2923.542998321343,2.201712281335351,41740328.75603634,-4.420635575334989,0.0022651788807186344
2920.786666265351,2.199292844061978,41397688.55377564,-4.414393131150005,0.002264350920113087
2918.0366236701466,2.1968800515510134,41058367.55022536,-4.408167205986354,0.0022635244547513254
2915.3227516125376,2.1945000933970373,40725977.63283093,-4.4020253973652625,0.0022627084727115027
2912.544617163975,2.192064909914855,40388239.50179411,-4.395740449764374,0.002261872769555701
2909.7869420502516,2.1896487898368218,40055495.607012,-4.389504083790839,0.002261042820197672
2907.008586348031,2.1872156876278686,39722765.18515396,-4.383223264640125,0.0022602062419506633
2904.155714285597,2.1847185152312414,39383713.34037949,-4.376776411230491,0.002259346802303201
2901.277376011986,2.1822002686939443,39044288.78728923,-4.370274495299327,0.002258479254058817
2898.384238744878,2.1796703050063826,38705786.43328555,-4.363741666757067,0.0022576068018493717
2895.4816301982787,2.1771332972604123,38368844.25439289,-4.357189988839571,0.0022567310453468574
2892.5748758481454,2.1745939075179646,38034080.22394998,-4.350631501225125,0.002255853586790834
2889.6707988579124,2.1720580961874862,37702263.25810532,-4.344081602207599,0.0022549764841623024
2886.780810385936,2.169535815313654,37374655.761154175,-4.337566007965637,0.002254103186451953
2883.928014339227,2.167047195331126,37053789.95375021,-4.33113674147119,0.0022532406857912494
2881.051654165876,2.164539225688017,36732796.2720418,-4.324656860912427,0.0022523706151596928
2878.158081133795,2.162017468613012,36412419.27957128,-4.318140728927206,0.0022514948848770273
2875.282157861893,2.159512305365563,36096500.53523758,-4.311666854517894,0.002250624044735676
2872.423339737025,2.1570232383211043,35784917.456369504,-4.3052339676228675,0.0022497579366332547
2869.5714587141465,2.1545413981727966,35476513.69986647,-4.298819158208854,0.002248893484350934
2866.820815627085,2.1521487819849328,35181334.8841916,-4.292634402074647,0.002248059295833547
2864.3149018601516,2.1499699989004397,34914351.98583615,-4.287001911927326,0.0022472989637582963
2861.480557106743,2.147506759058899,34614584.474537544,-4.28063351113159,0.002246438562801214
2858.4859465866643,2.1449055041388374,34300394.34582243,-4.273907664306204,0.0022455290277392428
2855.4077277841952,2.142232978412517,33980119.08071116,-4.266996874253426,0.002244593579509405
2852.2771567522977,2.139516407583949,33657169.41770607,-4.259971504466658,0.002243641680087389
2849.109562487037,2.1367691524009573,33333224.247589465,-4.252866084127852,0.0022426779653047764
2845.914030686307,2.133999135679755,33009277.511636645,-4.245701089500849,0.0022417051802657954
2842.6993134969666,2.131213974882165,32686256.96734366,-4.238496215102778,0.0022407259746895984
2839.5037152192026,2.128446854213142,32367988.94616763,-4.231337311076576,0.002239752014129257
2836.2580661166794,2.1256378980889568,32047602.657960773,-4.224069468084458,0.002238762206454382
2832.9767490189383,2.122799612178299,31726608.527217932,-4.216725021992843,0.0022377609122159314
2829.672974452836,2.119943462420354,31406352.512697227,-4.20933363060527,0.0022367521442118216
2826.349936218954,2.1170722375005586,31087175.594065167,-4.20190250444297,0.0022357368636372575
2823.008955597364,2.11418710353814,30769229.684096716,-4.194434656970326,0.0022347154613165327
2819.651069956639,2.111288979229183,30452635.02702997,-4.186932462471733,0.002233688242069531
2816.277007815693,2.108378514999048,30137479.16012675,-4.17939760176216,0.0022326554168185368
2812.8873994393,2.105456275236822,29823837.688103054,-4.171831533701276,0.0022316171668262884
2809.483022659407,2.102522950269088,29511797.158715494,-4.164236043989696,0.002230573718977942
2806.064765708406,2.0995793239940594,29201451.087159246,-4.15661316149868,0.0022295253345349397
2802.633899667001,2.0966265080204614,28892923.892765477,-4.1489657647928375,0.0022284723928998993
2799.192239826146,2.093666079481981,28586383.597351678,-4.141297939484587,0.0022274154415896116
2795.7433418499027,2.090701107727989,28282144.573015522,-4.133617638377174,0.0022263555645228228
2792.2956521578385,2.0877388560992616,27980934.18473964,-4.125943682683645,0.002225295352940538
2788.880848588625,2.084806514992742,27685451.966839943,-4.118346530104175,0.002224244556104345
2785.578026066461,2.081971898212453,27402339.580834866,-4.1110019243975895,0.002223227554445924
2782.2159686697637,2.079088021625341,27116833.614571065,-4.103529046963725,0.0022221916408398396
2778.7246429252164,2.076094945009733,26823191.74102113,-4.0957725310083894,0.0022211151766088205
2775.1968269779613,2.073072324627931,26529395.920607597,-4.087938765195634,0.0022200267130359085
2771.6496161962777,2.0700348466471152,26236913.16329976,-4.080065804746076,0.002218931503987647
2768.08894303043,2.066987612937911,25946247.012912057,-4.0721668732664265,0.0022178313676161554
2764.518001840172,2.063933372362014,25657661.092246227,-4.064249098965899,0.0022167272802162087
2760.9392264702183,2.0608742175046872,25371347.87888404,-4.056317911118403,0.0022156199853930665
2757.3552242799606,2.057812384271273,25087505.52958362,-4.048379112589846,0.0022145102825682
2753.7692017048325,2.054750614690668,24806370.526515298,-4.040439820742492,0.00221339915910879
2750.1862395159856,2.0516932433009876,24528313.947081897,-4.032511285294431,0.0022122881865870286
2746.611153819534,2.0486443688881275,24253670.895374343,-4.024604148175078,0.0022111788589431495
2743.0671253086093,2.0456237286733328,23984151.517235793,-4.016769617089899,0.0022100783789901534
2739.65344441165,2.0427158294651573,23727099.28534639,-4.009226925070146,0.002209017628444965
2736.3008267675546,2.0398615134634155,23477063.493003644,-4.001822680931296,0.0022079751375625872
2732.9656956587623,2.037023623764957,23230689.263332397,-3.9944605246976153,0.0022069373787030745
2729.4394240127112,2.0340247578798993,22972730.108804103,-3.9866801996889203,0.0022058393766136134
2725.9036387096053,2.031019518899098,22716668.158541072,-3.9788827727982214,0.0022047376166760982
2722.4232645978373,2.0280630538564015,22467132.298196442,-3.97121134942951,0.002203652342124742
2719.073324488419,2.0252189575481645,22229282.46365226,-3.9638309967666587,0.00220260700598857
2715.8247424966607,2.0224623822228276,22000797.133704416,-3.956677294805617,0.002201592607751196
2712.3797320549183,2.0195407050184726,21760808.42778164,-3.949094639305592,0.0022005161275121987
2708.8209559374786,2.0165242463296904,21515371.87929788,-3.94126547499132,0.002199403289561128
2705.200091445707,2.013456933274534,21268213.758556247,-3.9333037848594303,0.0021982701896760284
2701.554877371319,2.0103707961642514,21021978.116882816,-3.9252926998225686,0.0021971286038662188
2697.920965231744,2.0072960253673697,20779063.038705938,-3.9173105966116,0.002195989689219848
2694.344525039081,2.0042716333103088,20542459.492356732,-3.909458776512134,0.002194867937216257
2690.8845022155842,2.001347338297879,20315868.051310465,-3.9018663619928353,0.0021937818941802243
2687.658009074697,1.9986218741917505,20106599.365533866,-3.894789774530586,0.0021927684358737706
2684.2103010764877,1.9957111011227915,19885128.358844534,-3.887231617185544,0.002191684726025011
2680.5911720320637,1.9926573285486813,19655009.38453178,-3.8793016871671067,0.0021905462783660735
2676.8537893785297,1.9895056265597966,19419888.66730436,-3.8711169758564563,0.0021893697091976325
2673.0323754824212,1.9862850036081754,19182100.726853453,-3.8627527881971186,0.002188165712265148
2669.1495236108,1.983014609380622,18943175.610223748,-3.8542588415519465,0.002186941345659782
2665.216448694674,1.9797039734512474,18703892.372927986,-3.8456598780180835,0.0021857000973869805
2661.242941976057,1.976361405404227,18464913.271100998,-3.836977477174467,0.0021844450166064533
2657.2356030898045,1.972992512278363,18226684.09400775,-3.8282262037219374,0.0021831781529852703
2653.200098364443,1.969602103449045,17989577.18034769,-3.8194185540300234,0.002181901267472322
2649.1408515335493,1.9661939333383622,17753876.899075758,-3.810564286988766,0.0021806157332038595
2645.0616685286964,1.962771228711117,17519819.70100969,-3.8016717931501045,0.0021793227320358348
2640.966171248782,1.9593370538737087,17287620.826098643,-3.7927490431515265,0.0021780233914565285
2636.858148161302,1.9558946048219346,17057494.610582314,-3.7838043518176327,0.0021767188957972183
2632.741838203316,1.9524474464277255,16829669.72693225,-3.774846994464168,0.002175410576830586
2628.622212875438,1.9489997472092138,16604403.234853974,-3.7658878170742516,0.0021741000042877884
2624.505519368382,1.945556731456992,16382007.610588562,-3.756940411460973,0.002172789160028262
2620.3998751319964,1.9421251726326858,16162878.513889976,-3.748022397937011,0.0021714806295672984
2616.316197007302,1.9387141643146202,15947538.03383606,-3.739157429545365,0.002170177901415231
2612.269760291397,1.9353364140415046,15736707.440912995,-3.730378555669846,0.002168885869229426
2608.282592030573,1.9320102283683172,15531417.58540301,-3.721733382744237,0.002167611603277642
2604.387437173489,1.9287628023286534,15333191.649533547,-3.713292626152357,0.0021663656289957634
2600.6354960191516,1.9256366403701424,15144405.665175263,-3.7051668029061013,0.002165164419195014
2597.0990375025617,1.9226916940258936,14968376.12361404,-3.6975117921818437,0.0021640312537377364
2593.5164329167337,1.9197099725652742,14791925.459863838,-3.6897609816143606,0.0021628823642621314
2589.726495418687,1.9165574998006398,14607298.511511508,-3.6815660973606863,0.002161665954711663
2585.7894819163585,1.913284653151498,14417700.557889652,-3.6730580785854645,0.002160401212397561
2581.7475824522703,1.9099266927821061,14225353.06127027,-3.6643285801730117,0.0021591015755538802
2577.631219715854,1.906509029050459,14031832.987517864,-3.655443661219423,0.00215777674002684
2573.4625341742612,1.9030501404458942,13838264.969685266,-3.6464513672821317,0.002156433767359538
2569.2580028336256,1.8995637645451549,13645463.807416221,-3.6373874238096624,0.0021550779183126543
2565.0303223839446,1.8960604722989551,13454035.55105222,-3.628279327232911,0.002153713252948032
2560.7897853291174,1.892548817051499,13264449.818837903,-3.6191493310490204,0.002152343069968996
2556.545213019071,1.8890361127947055,13077088.021748144,-3.610016468375827,0.0021509702050904085
2552.304703311318,1.8855290562817435,12892280.390677495,-3.6008981688204442,0.0021495972710406353
2548.076174579484,1.8820341785452683,12710331.7865199,-3.5918114319786576,0.0021482268329074935
2543.848527069534,1.878542290501394,12530727.52383582,-3.58273238486118,0.0021468552931702503
2539.6253428694527,1.8750563417598844,12353589.336416114,-3.5736687150295188,0.002145483810077686
2535.422519845219,1.8715894303464693,12179538.453316357,-3.564654496858558,0.002144117552263792
2531.2609662805417,1.8681587500067862,12009367.082984312,-3.5557344541541687,0.0021427633406487017
2527.1680282318257,1.864786753633579,11844084.561949365,-3.5469669844864384,0.002141430121647447
2523.1794103835223,1.8615027197891278,11684980.343270987,-3.5384282312963817,0.002140129603492889
2519.3420405568404,1.8583450920833222,11533720.989373883,-3.5302181651161475,0.002138877203036892
2515.7204233475404,1.8553666831975373,11392578.87043593,-3.52247411261995,0.002137694135607275
2512.0518767075314,1.8523513437790922,11251188.536473429,-3.5146340818119532,0.0021364946621346796
2508.1720458898394,1.8491641594148944,11103368.581801686,-3.506347306770494,0.002135224924048375
2504.12222633778,1.8458393239146074,10950931.400531095,-3.4977027170667014,0.0021338982517623006
2499.9314305128746,1.8424008851386142,10795165.345746277,-3.4887628643062687,0.00213252399020847
2495.621345503168,1.8388668338596996,10637039.71865407,-3.4795745532004556,0.0021311091110209467
2491.2084140326892,1.8352508239536134,10477294.665403528,-3.470173314016748,0.002129658886862103
2486.705237611027,1.8315633327705163,10316502.294165408,-3.460586419521016,0.0021281773457700564
2482.1215546104363,1.8278124702425804,10155109.527232453,-3.450834988656679,0.002126667587691019
2477.4650059930505,1.8240046118007773,9993471.140232407,-3.4409356321304623,0.0021251320326201245
2472.7416386657687,1.8201448147899164,9831871.834396653,-3.4309015351078074,0.0021235725834790656
2467.9563016320794,1.816237145919643,9670543.34325182,-3.420743308600042,0.002121990754478281
2463.112957694561,1.8122849386363835,9509677.63959811,-3.410469658635342,0.0021203877722928916
2458.2149317696367,1.8082909978562418,9349437.189496823,-3.4000879185487687,0.0021187646568624355
2453.2651766602844,1.8042578181217066,9189965.04268033,-3.3896046161046494,0.002117122308521471
2448.267080528121,1.80018824176547,9031411.193876345,-3.37902718413401,0.002115461775837896
2443.235143605124,1.796094141043696,8874262.366273526,-3.3683865246343005,0.0021137878108848456
2438.1471598741305,1.7919575216357657,8717856.643099949,-3.3576359173815753,0.0021120929547514223
2433.0126097298257,1.7877861761452953,8562525.547706906,-3.3467956661002383,0.0021103802839787605
2427.8364790425317,1.783584227078817,8408448.529322175,-3.335876535422062,0.002108651388465769
2422.6253789425796,1.7793571027380553,8255841.77396938,-3.324892682328603,0.0021069084099558746
2417.405312322826,1.7751259273479987,8105462.106644655,-3.3138990424107826,0.002105160001021451
2412.303537506635,1.7709937417908392,7960863.2764002085,-3.3031633540964305,0.002103448847540942
2407.0117853521674,1.7667109197783422,7813322.571329441,-3.292037125674235,0.002101671490034868
2401.6605057424977,1.7623832606238203,7666614.535079889,-3.28079530870963,0.0020998715502357403
2396.2726104394683,1.7580293734523216,7521396.9504645765,-3.2694863087015102,0.002098056648584654
2390.8835076091113,1.7536778963241668,7378612.787050615,-3.258184563116556,0.0020962386680447665
2385.440325593833,1.7492861791208665,7236861.342529017,-3.2467793581297855,0.002094399714655166
2379.9413060814977,1.7448528964656833,7096133.427287733,-3.235267327732123,0.002092539093914642
2374.4006744737417,1.7403895985106594,6956820.305130109,-3.223678539610147,0.0020906615262906436
2368.822902663496,1.7358999515694646,6819048.229621103,-3.212022584896486,0.0020887684473594567
2363.2102585681723,1.7313858386025978,6682881.842420457,-3.200304423771971,0.002086860551021217
2357.564243801854,1.7268485211197004,6548363.079171523,-3.188527403450831,0.0020849382736836475
2351.8860293785765,1.7222889913309014,6415523.015086252,-3.176694172857434,0.0020830019409923367
2346.176623477602,1.7177081077367502,6284386.4562438615,-3.164807034781083,0.0020810518243425187
2340.4369370616364,1.7131066482172985,6154973.806177909,-3.1528680837536207,0.0020790881629479136
2334.6678508486257,1.7084853639542046,6027302.788797343,-3.140879345995783,0.002077111186581551
2328.870212624965,1.7038449773630768,5901388.502103215,-3.1288427740352405,0.002075121114607412
2323.044881294947,1.6991862173999972,5777244.463583358,-3.1167603382543034,0.00207311817108317
2317.1927387912,1.694509829026069,5654882.882587403,-3.104634051349637,0.002071102588936669
2311.3147377614778,1.6898166111802,5534315.632637597,-3.092466066670456,0.002069074626540185
2305.411993152143,1.685107489572209,5415555.989066158,-3.0802588667063544,0.0020670345996435
2299.4861168890056,1.6803837828197572,5298624.911359871,-3.068015952428696,0.002064982997885025
2293.5411167625975,1.6756487126222492,5183586.548990103,-3.0557457552941605,0.0020629211455318996
2287.614983100056,1.6709325232531127,5071137.3350820765,-3.0435267078614245,0.002060862193132582
2281.6431156544904,1.6661838155222224,4960027.890029546,-3.031225716567506,0.002058783645812318
2275.645712373506,1.661418705115498,4850634.980135432,-3.018884629780141,0.002056692440939792
2269.6194515995285,1.6566345909294233,4742889.271529231,-3.0064968058006802,0.0020545873421395524
2263.574256523327,1.6518393821685786,4636955.626237992,-2.994082817153794,0.002052471742834779
2257.5143572095953,1.6470364516125902,4532887.949317952,-2.981651480724082,0.0020503470631557667
2251.4445895723247,1.6422296404466752,4430744.389609868,-2.969212819180821,0.0020482149465217204
2245.3729762920416,1.637425297747071,4330628.679789368,-2.9567833349110675,0.0020460781710506335
2239.3168311893573,1.6326370946935465,4232782.77638094,-2.9443984525935503,0.0020439428148522057
