Temperature,Z,E
10.0,3.498521790565131e-76,0.14980860235027763
10.049502475123756,8.237396806799576e-76,0.14980995989361123
10.099004950247512,1.9233255169644544e-75,0.14981133079415274
10.14850742537127,4.453754993697099e-75,0.1498127150118247
10.198009900495025,1.0229699062011547e-74,0.14981411250600948
10.247512375618781,2.330846500316981e-74,0.14981552323557937
10.297014850742537,5.269010419673629e-74,0.14981694715892654
10.346517325866293,1.181839044978719e-73,0.14981838423399035
10.39601980099005,2.6305701529581237e-73,0.1498198344182862
10.445522276113806,5.811004183377316e-73,0.14982129766892996
10.495024751237562,1.2741155186434148e-72,0.14982277394266574
10.544527226361318,2.7731185587543346e-72,0.1498242631958885
10.594029701485074,5.992043072337697e-72,0.1498257653846694
10.643532176608831,1.2855005931709998e-71,0.14982728046477703
10.693034651732587,2.7384429331564397e-71,0.1498288083917006
10.742537126856343,5.7931071891747235e-71,0.14983034912067061
10.792039601980099,1.2171315153283758e-70,0.14983190260667886
10.841542077103854,2.5399337212725846e-70,0.14983346880449883
10.891044552227612,5.265096169119008e-70,0.14983504766870318
10.940547027351368,1.0842480989821513e-69,0.1498366391536826
10.990049502475124,2.2183401868279304e-69,0.1498382432136628
11.03955197759888,4.5096488450814294e-69,0.14983985980272077
11.089054452722635,9.109818261493444e-69,0.1498414888748007
11.138556927846393,1.8287980579053476e-68,0.14984313038372918
11.188059402970149,3.6487729280995277e-68,0.14984478428322934
11.237561878093905,7.235829564030986e-68,0.14984645052693468
11.28706435321766,1.42634625693736e-67,0.14984812906840256
11.336566828341418,2.7950583832766723e-67,0.14984981986112614
11.386069303465174,5.445272511039414e-67,0.14985152285854633
11.43557177858893,1.0547368768142676e-66,0.14985323801406397
11.485074253712686,2.031406360502036e-66,0.1498549652810495
11.534576728836441,3.890536416830445e-66,0.14985670461285386
11.584079203960197,7.409918826863714e-66,0.1498584559628178
11.633581679083955,1.4035874014608352e-65,0.14986021928428178
11.68308415420771,2.64434278947415e-65,0.14986199453059368
11.732586629331466,4.955392382200778e-65,0.14986378165511782
11.782089104455222,9.237396281166678e-65,0.14986558061124264
11.83159157957898,1.7130146101308576e-64,0.1498673913523874
11.881094054702736,3.1603907448697786e-64,0.1498692138320102
11.930596529826492,5.801182196264266e-64,0.14987104800361334
11.980099004950247,1.0595356346320651e-63,0.14987289382075042
12.029601480074003,1.9255945404955759e-63,0.14987475123703142
12.079103955197759,3.482497215479576e-63,0.14987662020612824
12.128606430321517,6.26786117709966e-63,0.14987850068178005
12.178108905445272,1.1227322611790908e-62,0.14988039261779715
12.227611380569028,2.001642185430507e-62,0.1498822959680668
12.277113855692784,3.5520155728235633e-62,0.14988421068655522
12.326616330816542,6.274307707205132e-62,0.14988613672731357
12.376118805940298,1.103273730485735e-61,0.14988807404448
12.425621281064053,1.9313049107043486e-61,0.14989002259228332
12.47512375618781,3.3658265596990976e-61,0.14989198232504555
12.524626231311565,5.840214430433354e-61,0.1498939531971855
12.57412870643532,1.008984547421166e-60,0.14989593516322022
12.623631181559078,1.7357254720203195e-60,0.14989792817776834
12.673133656682834,2.9733097157867714e-60,0.14989993219555123
12.72263613180659,5.072047439190501e-60,0.14990194717139504
12.772138606930348,8.616514579471302e-60,0.14990397306023287
12.821641082054104,1.4578267144717016e-59,0.1499060098171055
12.87114355717786,2.4565556773530913e-59,0.1499080573971635
12.920646032301615,4.123005451686271e-59,0.14991011575566726
12.970148507425371,6.892672564204643e-59,0.14991218484798957
13.019650982549127,1.1478030591499636e-58,0.14991426462961488
13.069153457672883,1.9040237117537513e-58,0.14991635505614082
13.11865593279664,3.1464550696735094e-58,0.14991845608327886
13.168158407920396,5.180045819966238e-58,0.1499205676668547
13.217660883044152,8.496243494561972e-58,0.14992268976280798
13.26716335816791,1.388416303459806e-57,0.14992482232719354
13.316665833291665,2.2606312021668796e-57,0.14992696531618102
13.366168308415421,3.667537624146967e-57,0.1499291186860551
13.415670783539177,5.928865721466651e-57,0.14993128239321515
13.465173258662933,9.550759334319089e-57,0.14993345639417557
13.514675733786689,1.533169825300007e-56,0.14993564064556558
13.564178208910445,2.452704780293764e-56,0.14993783510412848
13.613680684034202,3.910382868203621e-56,0.14994003972672232
13.663183159157958,6.213386585674528e-56,0.14994225447031861
13.712685634281714,9.839848841985602e-56,0.1499444792920023
13.762188109405471,1.5531559871806333e-55,0.1499467141489716
13.811690584529227,2.443564094990311e-55,0.14994895899853725
13.861193059652983,3.832036185980271e-55,0.14995121379812174
13.910695534776739,5.9902873067826e-55,0.1499534785052594
13.960198009900495,9.334534263657231e-55,0.1499557530775956
14.00970048502425,1.4500372646168722e-54,0.14995803747288577
14.059202960148006,2.2455438076439986e-54,0.14996033164899547
14.108705435271764,3.466840892781491e-54,0.14996263556389922
14.15820791039552,5.336177307182777e-54,0.14996494917568004
14.207710385519277,8.188876342171066e-54,0.14996727244252922
14.257212860643033,1.252938232441698e-53,0.1499696053227449
14.306715335766789,1.9114356264154555e-53,0.14997194777473202
14.356217810890545,2.9075524092518416e-53,0.14997429975700186
14.4057202860143,4.4100783027506885e-53,0.1499766612281705
14.455222761138057,6.670044904370973e-53,0.14997903214695926
14.504725236261812,1.0059759135550676e-52,0.1499814124721931
14.554227711385568,1.5129872273534902e-52,0.14998380216280116
14.603730186509326,2.269259245140185e-52,0.14998620117781478
14.653232661633082,3.394269243219465e-52,0.14998860947636794
14.70273513675684,5.063301344082313e-52,0.14999102701769682
14.752237611880595,7.532834042965822e-52,0.14999345376113796
14.801740087004351,1.1177169312541474e-51,0.1499958896661291
14.851242562128107,1.654114537457629e-51,0.14999833469220814
14.900745037251863,2.4415802633188807e-51,0.15000078879901255
14.950247512375618,3.594672424820408e-51,0.15000325194627914
14.999749987499374,5.278877489654079e-51,0.15000572409384316
15.04925246262313,7.732656354214156e-51,0.15000820520163888
15.098754937746888,1.129877794555475e-50,0.15001069522969768
15.148257412870644,1.6468744987234732e-50,0.15001319413814895
15.197759887994401,2.3945631592565904e-50,0.15001570188721985
15.247262363118157,3.4732752818283005e-50,0.15001821843723342
15.296764838241913,5.025849210588155e-50,0.1500207437486102
15.346267313365669,7.255162321627977e-50,0.15002327778186691
15.395769788489424,1.0448698639337967e-49,0.15002582049761637
15.44527226361318,1.5012896735871637e-49,0.1500283718565673
15.494774738736936,2.152106317908276e-49,0.15003093181952484
15.544277213860694,3.078006001260742e-49,0.1500335003473892
15.59377968898445,4.392291739676185e-49,0.15003607740115618
15.643282164108205,6.253716846403314e-49,0.15003866294191748
15.692784639231963,8.88422995534313e-49,0.1500412569308605
15.742287114355719,1.259345861696813e-48,0.15004385932926725
15.791789589479475,1.7812418577781012e-48,0.150046470098516
15.84129206460323,2.5139827346986166e-48,0.15004908920008045
15.890794539726986,3.540560222167578e-48,0.1500517165955298
15.940297014850742,4.9757739138604934e-48,0.1500543522465284
15.989799489974498,6.978093824384908e-48,0.15005699611483808
16.039301965098254,9.765824854827475e-48,0.1500596481623148
16.088804440222013,1.3639089010211772e-47,0.1500623083509123
16.138306915345765,1.9009659776125145e-47,0.1500649766426798
16.187809390469525,2.6441373701451198e-47,0.1500676529997641
16.23731186559328,3.670476228285706e-47,0.15007033738440811
16.286814340717036,5.085076526226274e-47,0.15007302975895243
16.336316815840792,7.030999939737215e-47,0.15007573008583605
16.385819290964548,9.702618871396076e-47,0.15007843832759474
16.435321766088304,1.336351749836074e-46,0.15008115444686346
16.48482424121206,1.8370463128477877e-46,0.15008387840637588
16.53432671633582,2.5205447062856988e-46,0.15008661016896507
16.58382919145957,3.4518433066737395e-46,0.15008934969756357
16.63333166658333,4.718428839627671e-46,0.15009209695520423
16.682834141707087,6.437846650702103e-46,0.1500948519050209
16.732336616830843,8.7677438708225e-46,0.1500976145102484
16.7818390919546,1.1919173282459683e-45,0.15010038473422357
16.831341567078354,1.6174185729535117e-45,0.15010316254038558
16.88084404220211,2.1909053199326572e-45,0.1501059478922768
16.930346517325866,2.9624872116539794e-45,0.1501087407535431
16.97984899244962,3.9987823640222163e-45,0.15011154108793473
17.029351467573377,5.388204896344015e-45,0.15011434885930672
17.078853942697137,7.247897629579142e-45,0.15011716403161993
17.12835641782089,9.732806775996131e-45,0.15011998656894138
17.17785889294465,1.3047540927967233e-44,0.15012281643544512
17.227361368068404,1.7461843405795546e-44,0.15012565359541322
17.27686384319216,2.333074637046514e-44,0.15012849801323588
17.326366318315916,3.112078137736339e-44,0.15013134965341268
17.375868793439672,4.1444012344749637e-44,0.15013420848055342
17.425371268563428,5.51021560709908e-44,0.1501370744593788
17.474873743687183,7.314369121717257e-44,0.15013994755472038
17.524376218810943,9.693766524437702e-44,0.15014282773152304
17.573878693934695,1.282689355740673e-43,0.1501457149548444
17.623381169058455,1.6946088317220845e-43,0.15014860918985637
17.67288364418221,2.235332851419959e-43,0.15015151040184568
17.722386119305966,2.9440511688851952e-43,0.15015441855621459
17.771888594429722,3.871546852788563e-43,0.15015733361848269
17.821391069553478,5.08352810705498e-43,0.1501602555542863
17.870893544677234,6.664889507911459e-43,0.15016318432938036
17.92039601980099,8.725154063774802e-43,0.15016611990963935
17.969898494924745,1.1405413379977536e-42,0.15016906226105728
18.0194009700485,1.4887165787411e-42,0.15017201134975022
18.06890344517226,1.9403555664615765e-42,0.15017496714195472
18.118405920296013,2.5253646405954005e-42,0.1501779296040316
18.167908395419772,3.282052081132206e-42,0.15018089870246465
18.217410870543528,4.259420379890537e-42,0.15018387440386236
18.266913345667284,5.520065275882844e-42,0.15018685667495874
18.31641582079104,7.143837224045649e-42,0.15018984548261455
18.365918295914796,9.232459633219487e-42,0.150192840793818
18.415420771038555,1.1915346163257843e-41,0.15019584257568508
18.464923246162307,1.5356918766764334e-41,0.15019885079546158
18.514425721286067,1.9765801634283109e-41,0.15020186542052305
18.56392819640982,2.5406356974430853e-41,0.15020488641837607
18.613430671533578,3.2613140564960636e-41,0.15020791375665987
18.662933146657334,4.180899304114508e-41,0.15021094740314556
18.71243562178109,5.352765278195751e-41,0.15021398732573876
18.761938096904846,6.844198511168827e-41,0.1502170334924794
18.8114405720286,8.739917897920321e-41,0.1502200858715433
18.860943047152357,1.114645767722785e-40,0.15022314443124266
18.910445522276113,1.4197618815075364e-40,0.150226209140027
18.959947997399873,1.8061241008836368e-40,0.15022927996648394
19.009450472523625,2.2947605125626507e-40,0.1502323568793411
19.058952947647384,2.911984618726315e-40,0.15023543984746532
19.108455422771137,3.690684272157102e-40,0.15023852883986458
19.157957897894896,4.671915267266485e-40,0.15024162382568854
19.20746037301865,5.9068693021703306e-40,0.1502447247742302
19.256962848142408,7.459301452790738e-40,0.15024783165492517
19.306465323266163,9.408521021743214e-40,0.15025094443735404
19.35596779838992,1.1853072321527855e-39,0.1502540630912425
19.40547027351368,1.4915259436903433e-39,0.1502571875864619
19.45497274863743,1.8746702259248284e-39,0.1502603178930309
19.50447522376119,2.353515126077089e-39,0.15026345398111554
19.553977698884943,2.951283696962743e-39,0.15026659582103058
19.603480174008702,3.696668857822968e-39,0.15026974338323992
19.652982649132458,4.6250826544564107e-39,0.15027289663835747
19.702485124256214,5.7801818786167945e-39,0.15027605555714774
19.75198759937997,7.215729192054972e-39,0.1502792201105276
19.801490074503725,8.997861130440483e-39,0.15028239026956552
19.85099254962748,1.1207849031980583e-38,0.15028556600548323
19.900495024751237,1.394545651365054e-38,0.1502887472896571
19.949997499874996,1.733301815996024e-38,0.15029193409361646
19.99949997499875,2.1520389252434778e-38,0.15029512638904718
20.049002450122508,2.6690946429757105e-38,0.15029832414779093
20.09850492524626,3.3068855046892375e-38,0.15030152734184526
20.14800740037002,4.0927861780127624e-38,0.15030473594336594
20.197509875493775,5.060192198108397e-38,0.15030794992466642
20.24701235061753,6.249803192138171e-38,0.15031116925821844
20.296514825741287,7.711170816113373e-38,0.15031439391665355
20.346017300865043,9.504564190092268e-38,0.1503176238727628
20.395519775988802,1.1703215778328226e-37,0.15032085909949774
20.445022251112555,1.4396022706566028e-37,0.15032409956997156
20.494524726236314,1.7690792775660645e-37,0.15032734525745828
20.544027201360066,2.1718141313104816e-37,0.15033059613539487
20.593529676483826,2.6636164963170826e-37,0.1503338521773809
20.64303215160758,3.2636042091357675e-37,0.15033711335717898
20.692534626731337,3.994873729982188e-37,0.15034037964871624
20.742037101855093,4.8853020352677445e-37,0.15034365102608366
20.79153957697885,5.9685048451118e-37,0.1503469274635371
20.841042052102605,7.284980627743717e-37,0.15035020893549828
20.89054452722636,8.883475170743974e-37,0.15035349541655457
20.94004700235012,1.0822607792561219e-36,0.1503567868814594
20.989549477473872,1.3172807643934403e-36,0.15036008330513326
21.03905195259763,1.601861720035793e-36,0.15036338466266388
21.088554427721387,1.946143018544091e-36,0.15036669092930624
21.138056902845143,2.362274303657215e-36,0.15037000208048368
21.1875593779689,2.864801291322529e-36,0.15037331809178806
21.237061853092655,3.471123148387503e-36,0.1503766389389794
21.28656432821641,4.202034269067748e-36,0.15037996459798753
21.336066803340167,5.082365482190195e-36,0.15038329504491116
21.385569278463926,6.141742302871677e-36,0.15038663025601962
21.43507175358768,7.415480849158701e-36,0.150389970207751
21.484574228711438,8.945645544807677e-36,0.15039331487671548
21.53407670383519,1.0782296801666016e-35,0.15039666423969278
21.58357917895895,1.2984961608648033e-35,0.1504000182736341
21.633081654082705,1.562436545210733e-35,0.15040337695566144
21.68258412920646,1.8784470372972304e-35,0.15040674026306872
21.732086604330217,2.256487136529103e-35,0.15041010817332132
21.781589079453973,2.7083611894947015e-35,0.15041348066405644
21.831091554577732,3.2480489245179956e-35,0.15041685771308372
21.880594029701484,3.892093188226454e-35,0.15042023929838486
21.930096504825244,4.660054431500696e-35,0.15042362539811419
21.979598979948996,5.575043026425472e-35,0.15042701599059796
22.029101455072755,6.664342267049781e-35,0.1504304110543363
22.07860393019651,7.960136949964261e-35,0.1504338105680015
22.128106405320267,9.500364785988881e-35,0.1504372145104389
22.177608880444023,1.132971060730443e-34,0.15044062286066728
22.22711135556778,1.350076645728405e-34,0.15044403559787817
22.276613830691534,1.6075384242405455e-34,0.1504474527014364
22.32611630581529,1.912625175453702e-34,0.15045087415088024
22.37561878093905,2.273872761445257e-34,0.1504542999259213
22.425121256062802,2.701297613100904e-34,0.1504577300064446
22.47462373118656,3.2066449314345093e-34,0.15046116437250825
22.524126206310314,3.8036770438359743e-34,0.15046460300434408
22.573628681434073,4.5085081745617626e-34,0.15046804588235718
22.62313115655783,5.339992827152234e-34,0.15047149298712603
22.672633631681585,6.320176049859707e-34,0.1504749442994021
22.72213610680534,7.474815082182649e-34,0.15047839980011032
22.771638581929096,8.833983282289883e-34,0.15048185947034906
22.821141057052856,1.0432768835284701e-33,0.15048532329138933
22.870643532176608,1.2312082567791762e-33,0.15048879124467518
22.920146007300367,1.4519591275656902e-33,0.15049226331182408
22.96964848242412,1.711079534288277e-33,0.15049573947462597
23.01915095754788,2.015027213001564e-33,0.15049921971504282
23.068653432671635,2.3713109682580347e-33,0.15050270401521035
23.11815590779539,2.788655880401514e-33,0.15050619235743548
23.167658382919146,3.277193550814603e-33,0.15050968472419815
23.217160858042902,3.848681037577727e-33,0.15051318109814973
23.266663333166658,4.5167526458450476e-33,0.15051668146211344
23.316165808290414,5.297209317844388e-33,0.15052018579908466
23.365668283414173,6.208351025593864e-33,0.1505236940922292
23.415170758537926,7.271358315110818e-33,0.1505272063248853
23.464673233661685,8.51072999518602e-33,0.15053072248056076
23.514175708785437,9.954784919170277e-33,0.150534242542935
23.563678183909197,1.1636236888644325e-32,0.15053776649585718
23.613180659032952,1.3592852928941545e-32,0.15054129432334726
23.66268313415671,1.586820656579182e-32,0.15054482600959454
23.712185609280464,1.851253928940157e-32,0.15054836153895804
23.76168808440422,2.1583745148985138e-32,0.15055190089596554
23.81119055952798,2.5148495401566635e-32,0.15055544406531476
23.86069303465173,2.928352237104307e-32,0.15055899103187118
23.91019550977549,3.407708418758171e-32,0.15056254178066836
23.959697984899243,3.963063490727263e-32,0.15056609629690854
24.009200460023003,4.6060727695636996e-32,0.15056965456596114
24.05870293514676,5.350118233804733e-32,0.1505732165733624
24.108205410270514,6.210555236265401e-32,0.1505767823048157
24.15770788539427,7.204993157901438e-32,0.1505803517461907
24.207210360518026,8.353614490670625e-32,0.15058392488352326
24.256712835641782,9.679537405732249e-32,0.15058750170301424
24.306215310765538,1.1209227501226067e-31,0.1505910821910302
24.355717785889297,1.2972965138748748e-31,0.15059466633410248
24.40522026101305,1.500537557835015e-31,0.15059825411892602
24.45472273613681,1.7346030018232184e-31,0.15060184553236025
24.504225211260565,2.004012664824686e-31,0.15060544056142833
24.55372768638432,2.3139261947830104e-31,0.15060903919331511
24.603230161508076,2.6702303712549734e-31,0.15061264141536865
24.652732636631832,3.0796378693797306e-31,0.15061624721509909
24.702235111755588,3.5497989299699192e-31,0.15061985658017774
24.751737586879344,4.089427555019346e-31,0.15062346949843727
24.801240062003103,4.708444042542231e-31,0.15062708595787005
24.850742537126855,5.418135891629221e-31,0.1506307059466296
24.900245012250615,6.231339350369626e-31,0.15063432945302727
24.949747487374367,7.162644148537736e-31,0.1506379564655347
24.999249962498126,8.228624256671514e-31,0.15064158697278154
25.048752437621882,9.448097846630956e-31,0.15064522096355448
25.098254912745638,1.0842419999576285e-30,0.1506488584267985
25.147757387869394,1.2435812119488504e-30,0.1506524993516148
25.19725986299315,1.4255732468302236e-30,0.15065614372726063
25.24676233811691,1.6333292747225298e-30,0.15065979154314904
25.29626481324066,1.870372621322406e-30,0.15066344278884758
25.34576728836442,2.1406913445793873e-30,0.15066709745407889
25.395269763488173,2.4487972573405562e-30,0.15067075552871867
25.444772238611932,2.799792153855541e-30,0.15067441700279646
25.494274713735688,3.199442083277394e-30,0.1506780818664939
25.543777188859444,3.6542606076916386e-30,0.1506817501101448
25.5932796639832,4.171602086676583e-30,0.15068542172423452
25.642782139106956,4.7597661459750534e-30,0.15068909669939837
25.69228461423071,5.4281146156586245e-30,0.15069277502642256
25.741787089354467,6.187202364419927e-30,0.15069645669624238
25.791289564478227,7.048923612681699e-30,0.15070014169994195
25.84079203960198,8.026675479538112e-30,0.15070383002875368
25.89029451472574,9.135540708756817e-30,0.15070752167405715
25.93979698984949,1.0392491728923453e-29,0.15071121662737907
25.98929946497325,1.1816618434252893e-29,0.15071491488039235
26.038801940097006,1.3429382327698113e-29,0.15071861642491535
26.08830441522076,1.5254899949094706e-29,0.15072232125291088
26.137806890344518,1.7320258820663936e-29,0.15072602935648674
26.187309365468273,1.9655869483036524e-29,0.15072974072789314
