temperature,internal energy,partition function
1000.0,0.7476487796391945,3306.6067214440727
999.6506975081951,0.7473223095154333,3296.599630533172
999.3027451842539,0.7469972006441895,3286.658734585899
998.9480961637535,0.7466659367158391,3276.5547026101285
998.5885433663095,0.7463301974357631,3266.339934089511
998.2246173788755,0.7459904823057992,3256.0305534128156
997.8565437156091,0.7456470056040732,3245.6339151717084
997.4844150958396,0.7452998575180103,3235.153571772218
997.1082669072882,0.7449490747038192,3224.5914432452323
996.7281168332178,0.7445946773089821,3213.948948433148
996.343982219584,0.7442366851813185,3203.227496160058
995.9559063071573,0.7438751423033384,3192.4292139256095
995.5639494947667,0.7435101086149692,3181.556694508948
995.1682158847054,0.7431416846936646,3170.6137210044217
994.7688483621872,0.7427700071027582,3159.6051117906068
994.3659645304374,0.7423951887331413,3148.5349452446876
993.9597151521915,0.7420173731825047,3137.408168154756
993.5503768987754,0.7416368209080259,3126.233108250471
993.1382984674981,0.7412538589448396,3115.019953412208
992.7239091228308,0.7408688887116001,3103.780949603328
992.3077426959318,0.7404824081507544,3092.5310114042245
991.8904564654486,0.7400950290687062,3081.2881822089985
991.472852246267,0.7397074964869482,3070.074144104332
991.055909142726,0.7393207187717898,3058.9150293767034
990.6408186474678,0.7389357998786736,3047.842279244096
990.2290294916826,0.7385540805750178,3036.893746573529
989.8223051792747,0.7381771913447907,3026.1151167007615
989.4201138206554,0.7378046345075495,3015.490951149887
989.0077241048567,0.7374227669450264,3004.6327365858415
988.5856128611373,0.7370320401232862,2993.555508170721
988.1541926587307,0.736632845636178,2982.2725006171786
987.7138480855673,0.7362255488329578,2970.796112510675
987.264935294188,0.7358104884190854,2959.1379001554305
986.8077835965316,0.7353879779554141,2947.3086256610845
986.3426976749384,0.7349583079268561,2935.318320949623
985.8699588629632,0.7345217469506289,2923.1763274922505
985.389824694523,0.7340785413864304,2910.891291818167
984.902533218347,0.7336289193464027,2898.471283175856
984.4083026324467,0.7331730903819517,2885.9237906272847
983.9073351450949,0.7327112490691049,2873.255827520688
983.3998156672899,0.7322435738246961,2860.4739041450566
982.8859171080087,0.7317702318077169,2847.5841668343423
982.3658003272161,0.731291378891666,2834.592400954227
981.8396151253756,0.7308071605917624,2821.5040599065487
981.3075020209386,0.7303177137153297,2808.3243132228954
980.7695941348646,0.729823168106909,2795.058096368659
980.2260178841079,0.7293236472949846,2781.710130329524
979.6768935199552,0.7288192689950526,2768.2849371098982
979.1223335272522,0.7283101436484389,2754.7868030591135
978.56244976963,0.7277963809895254,2741.2199548123767
977.9973521124987,0.7272780887797065,2727.5885255460144
977.4271472089029,0.7267553716945401,2713.8965260988234
976.851941377794,0.7262283339632517,2700.1479145539206
976.271840946792,0.7256970796790815,2686.3466037898334
975.686951993725,0.7251617125586208,2672.496454645529
975.0973819524221,0.7246223374070772,2658.601313135706
974.5032403482014,0.7240790607834915,2644.6650262635935
973.9046393341878,0.7235319914819175,2630.6914527341128
973.3016937760846,0.7229812405987023,2616.684462871856
972.6945232712397,0.7224269233649692,2602.6479831208517
972.0832518975731,0.7218691589023196,2588.585987108556
971.4680089886291,0.7213080709147512,2574.5025103409453
970.8489308753816,0.720743789259171,2560.401686366976
970.2261610879873,0.7201764501080782,2546.2877469728514
969.5998510546358,0.7196061965640161,2532.1650334568985
968.9698755645404,0.7190329197788796,2518.0316245246695
968.3354959708987,0.7184559534137743,2503.8719960878684
967.6966936404616,0.7178752869523852,2489.6869071496903
967.0534433126912,0.7172909039330307,2475.4769769590084
966.4057140408665,0.7167027828202724,2461.242709354263
965.7534710998435,0.7161108987508772,2446.9845375527198
965.0966767627978,0.715515224248635,2432.7028431042972
964.4352894254539,0.7149157284394844,2418.397938669468
963.7692649154724,0.7143123782484974,2404.070098296764
963.098556761282,0.713705138651096,2389.719564592122
962.4231161023627,0.7130939725991975,2375.3465480964405
961.7428926060323,0.7124788418576942,2360.9512479718396
961.0578357406312,0.7118597081600953,2346.5338795272064
960.3678933697013,0.7112365319410789,2332.09464493814
959.6730131772226,0.710609273628446,2317.633763705463
958.9731427611888,0.7099778937294906,2303.1514746293014
958.2682296196757,0.709342352820178,2288.6480355073672
957.5582214720123,0.7087026118362273,2274.1237296740046
956.843067299898,0.7080586330112193,2259.57888690605
956.1227170295488,0.7074103795886029,2245.013876184019
955.3971215263209,0.7067578158156604,2230.4291049336243
954.6662334189606,0.7061009076828578,2215.825034790635
953.9300074056187,0.7054396231949747,2201.2021865047527
953.1883979177402,0.7047739302701799,2186.5610926093686
952.44136306813,0.7041038002825627,2171.902374695631
951.6888628226749,0.7034292064141834,2157.2267055307343
950.9308575471741,0.7027501223493228,2142.5347797279833
950.1673122654885,0.7020665260854002,2127.8273951248057
949.3981920252862,0.7013783957752655,2113.105361395377
948.6234650737572,0.7006857125664568,2098.369560085518
947.8431009393802,0.6999884588790539,2083.6209063716124
947.057073318026,0.6992866209786324,2068.8604021303095
946.2653561663462,0.698580185479603,2054.0890605782142
945.4679263200968,0.6978691416788108,2039.307954296431
944.6647624845173,0.6971534806478153,2024.5181947551782
943.8558462137696,0.6964331960992772,2009.7209488320284
943.041160210727,0.6957082828660144,1994.9174060799132
942.2206895540321,0.6949787379882636,1980.1087998888
941.3944213669207,0.694244560412127,1965.2963999062217
940.5623452339951,0.6935057513530174,1950.4815179677582
939.724449888987,0.6927623113499315,1935.665448008354
938.8807295293776,0.6920142458647273,1920.849576863443
938.0311772908734,0.6912615594849013,1906.035267314879
937.1757886997444,0.6905042589820551,1891.2239180878107
936.3145608048222,0.6897423525361277,1876.416947297621
935.4474906668324,0.6889758483950196,1861.6157656042496
934.574579380808,0.6882047584259717,1846.821843913823
933.695826900888,0.6874290935352697,1832.036623935721
932.8112349046294,0.6866488661968687,1817.2615663371898
931.9208063790054,0.6858640900812549,1802.498142640918
931.0245448032368,0.6850747793309717,1787.747820820316
930.1224543849052,0.6842809487659337,1773.0120686407165
929.2145403317187,0.6834826141190765,1758.292357407302
928.3008090754834,0.6826797922288622,1743.5901647521255
927.3812664207908,0.6818724994095682,1728.9069442508921
926.4559205969795,0.6810607541288481,1714.2441737998347
925.5247777738589,0.6802445730693693,1699.6032837235607
924.5878465791719,0.6794239750901042,1684.9857280662054
923.6451357649851,0.6785989791754261,1670.3929469459842
922.6966536456661,0.6777696039424876,1655.8263577238306
921.7424093151781,0.6769358687049878,1641.287373589482
920.7824123253026,0.676097793188659,1626.7773980958054
919.8166699718668,0.675255395162486,1612.2977842154928
918.8451934925843,0.6744086958454385,1597.8499273712948
917.8679917516326,0.6735577143938773,1583.4351701407782
916.8850747748592,0.6727024709839088,1569.054855075145
915.8964519876869,0.671842985274913,1554.7102984173168
914.9021330887117,0.670979277169295,1540.4028028680702
913.902128692197,0.6701113673679037,1526.1336664425808
912.8964489655029,0.6692392761845987,1511.904162621442
911.8851027120912,0.6683630227527532,1497.7155277125717
910.8680988286955,0.6674826262902644,1483.5689817565424
909.8454468188329,0.6665981065422215,1469.4657354333544
908.8171560007494,0.6657094830934989,1455.4069788365982
907.7832368347897,0.6648167765140706,1441.3938994183022
906.7436988494924,0.6639200065654279,1427.4276535014715
905.6985512464682,0.6630191927242585,1413.509374785384
904.647804173686,0.6621143552787219,1399.6401912084868
903.5914669937945,0.6612055138346485,1385.8212017843916
902.5295495967489,0.6602926884454189,1372.0534939534873
901.4620611463062,0.6593758985329101,1358.3381271969506
900.3890112129379,0.6584551638610117,1344.6761477774467
899.310409530221,0.6575305043243508,1331.0685854072058
898.2262654496299,0.656601939479946,1317.5164463392507
897.1365879726873,0.655669488575249,1304.0207139582612
896.0413869199389,0.6547331715475063,1290.5823632359288
894.9406721812754,0.6537930083795574,1277.2023511743514
893.8344521176429,0.652849017735347,1263.8815976007377
892.7227368457293,0.6519012197641118,1250.6210250229212
891.6055353637767,0.6509496336455096,1237.421523834111
890.4828574374427,0.6499942791971733,1224.2839749095162
889.3547119203342,0.6490351754435707,1211.2092298100933
888.2211086106205,0.6480723421949159,1198.1981325102734
887.0820570993949,0.6471057990656849,1185.2515058593285
885.937565273505,0.646135564205911,1172.3701349493817
884.7876439148328,0.6451616582005925,1159.5548190837608
883.6323015275199,0.6441840996823428,1146.806313412682
882.4715479806513,0.6432029084174369,1134.1253698144535
881.3053919397396,0.642218103131304,1121.5127085438703
880.1338433016178,0.6412297035657953,1108.9690448658916
878.9569109195781,0.6402377285568082,1096.4950644439903
877.7746050318575,0.6392421980815212,1084.0914492988134
876.5869347755099,0.6382431311614924,1071.758851434564
875.3939085748358,0.6372405461925751,1059.4978974568803
874.1955371819506,0.6362344634984254,1047.3092197740484
872.9918287698474,0.6352249012064937,1035.1934062972564
871.782792896435,0.6342118785776097,1023.1510411428849
870.5684387275411,0.6331954145126668,1011.1826865539465
869.3487758789719,0.6321755282571835,999.2888913471085
868.1238134416723,0.6311522385846188,987.4701814023501
866.8935605478376,0.6301255642699267,975.72706539011
865.6580266822289,0.6290955243479436,964.0600377576209
864.4172205854767,0.6280621371981636,952.4695684482695
863.1711512238538,0.6270254213534833,940.956112281284
861.919828244672,0.6259853958767361,929.5201130688934
860.6632605936154,0.6249420792095556,918.1619909430724
859.4014564297819,0.623895489104117,906.8821420511986
858.1344252587627,0.6228456443922271,895.6809577982394
856.8621754423788,0.6217925629185828,884.5588026381536
855.584716321472,0.6207362632992539,873.5160329890302
854.3020560221547,0.6196767631055774,862.5529782214167
853.014203486095,0.6186140805430431,851.6699584180193
851.7211667216404,0.6175482330061883,840.8672695667783
850.4229542956325,0.6164792383096448,830.1451963732284
849.1195747260748,0.6154071141856804,819.5040071820299
847.811035536353,0.6143318775069372,808.9439465327283
846.4973456768766,0.6132535462767542,798.465254950361
845.1785122502278,0.6121721369384026,788.0681427376904
843.8545436951812,0.6110876669890732,777.7528156171919
842.5254474410584,0.6100001530551143,767.5194562883066
841.1912310850288,0.6089096118575181,757.3682339214306
839.8519021713447,0.6078160600303687,747.2993025600007
838.5074687337077,0.6067195145625458,737.3128052792371
837.1579377578705,0.6056199915430235,727.4088628863103
835.8033157755771,0.6045175066479506,717.587578800153
834.4436097624388,0.603412075871594,707.8490457743794
833.0788261970602,0.6023037147601009,698.193339219755
831.7089722177876,0.6011924393509723,688.6205255884308
830.3340556091209,0.6000782661585702,679.1306621322334
828.9540838802255,0.5989612114251748,669.723790525482
827.569064755923,0.597841291518421,660.3999404117446
826.1790049065521,0.596718521904438,651.1591210685817
824.7839125068784,0.5955929192154328,642.0013386857573
823.3837946771222,0.5944644991812432,632.9265794070809
821.9786592012066,0.5933332780160154,623.9348208415313
820.5685136916505,0.5921992717435463,615.0260267002113
819.1533649907377,0.5910624957167738,606.2001433089147
817.7332224050705,0.5899229672146925,597.4571198545564
816.3080957078153,0.5887807038305998,588.7968954974515
814.8779947762632,0.5876357231795337,580.2193971956185
813.4429295740748,0.5864880428831625,571.7245397312356
812.0029078252123,0.5853376787118058,563.3122123517519
810.5579410674778,0.5841846494217747,554.9823144691054
809.1080411527748,0.5830289739500075,546.734734595207
807.6532211062408,0.5818706720959099,538.5693551997018
806.1934941292056,0.5807097637232477,530.4860469767309
804.7288751413197,0.5795462699833674,522.4846773450515
803.2593806685891,0.5783802132183854,514.565109416912
801.7850288003194,0.5772116169195735,506.7272013969721
800.3058389932826,0.5760405055651021,498.9708052203663
798.8218332223537,0.5748669055230786,491.2957722060976
797.3330355166647,0.5736908446738186,483.70195005696667
795.8394716102144,0.57251235212488,476.1891806513854
794.3411716933143,0.5713314603705473,468.757313274264
792.8381678507131,0.570148203255993,461.4061909221921
791.330496216162,0.568962617661955,454.13566028501947
789.8181965963795,0.5677747431913008,446.94556892529465
788.3013129769962,0.5665846225492437,439.83576675229756
786.7798940382864,0.5653923019285507,432.80610737482186
785.2539942059989,0.5641978318106773,425.8564517102593
783.7236729212067,0.563001266369575,418.98666329126934
782.188995743128,0.561802664310226,412.1966119602748
780.6500352794914,0.5606020895669043,405.486176443379
779.106871351077,0.5593996114001378,398.8552433636615
777.5595916399012,0.5581953048691302,392.3037082926176
776.0082917011825,0.5569892508064993,385.8314739949459
774.4530763773544,0.5557815368812541,379.4384544640502
772.8940607089055,0.5545722582643206,373.1245764963186
771.3313685486286,0.5533615165110856,366.889771932151
769.7651351186803,0.5521494215011171,360.73398586556175
768.1955070185883,0.5509360913952285,354.6571742449391
766.6226420710251,0.5497216524676204,348.6593009647571
765.0467094115165,0.5485062391272041,342.74033602692197
763.4678923962243,0.5472899961084923,336.90026412205077
761.8863848859755,0.5460730755536698,331.13906839795703
760.3023951051505,0.5448556399334131,325.456742558202
758.7161423128197,0.5436378594329077,319.85327660063365
757.1278590846476,0.5424199136560414,314.32866313208496
755.5377909778251,0.5412019913148601,308.8828941633464
753.9461924439621,0.5399842870524797,303.51594557957276
752.3533304456543,0.5387670041719507,298.2277883771068
750.7594825302863,0.5375503531183075,293.01838089330926
749.1649350668089,0.5363345500956224,287.8876622526396
747.5699828893341,0.5351198167648087,282.8355508526631
745.9749287401086,0.5339063797914777,277.86194240724524
744.3800783491658,0.5326944670836488,272.9666949318343
742.7857416978934,0.5314843087466158,268.14963373445516
741.1922311303233,0.5302761356432617,263.4105467577492
739.5998584677461,0.5290701772102084,258.74917757136853
738.0089346714116,0.5278666612156342,254.16522643731986
736.4197662056298,0.5266658110272135,249.658342150264
734.8326552883015,0.5254678458312878,245.22812557239274
733.2478972161699,0.5242729786465148,240.87412505380794
731.6657792519463,0.5230814155265678,236.5958366580945
730.0865771050867,0.5218933529588669,232.39269821454286
728.5105574496905,0.520708979814795,228.26409982538516
726.9379734280093,0.5195284740243916,224.2093756643576
725.3690653369566,0.5183520031569909,220.22780978895304
723.8040598114635,0.517179723872453,216.3186378995116
722.2431703366921,0.5160117823693763,212.48105237424065
720.6865943169912,0.5148483122577073,208.71419875795976
719.1345152052755,0.5136894362208456,205.01718471791867
717.5871019759734,0.5125352656862897,201.38908216830689
716.0445077544226,0.51138589986959,197.82892742341812
714.5068725515978,0.5102414278776852,194.33573074217801
712.9743224064231,0.5091019281287134,190.9084771599288
711.4469697194377,0.5079674686592247,187.54612996482288
709.9249130337957,0.5068381070189474,184.24763277865256
708.4082393395662,0.505713892034914,181.01191689084231
706.8970237635347,0.5045948636291142,177.83790256043972
705.3913306731193,0.5034810536821858,174.72450317381015
703.8912130570121,0.502372485618431,171.6706256068558
702.3967155012408,0.5012691766457297,168.67517776189933
700.9078723450165,0.5001711364282942,165.73706602583246
699.4247107937113,0.4990783694173583,162.85520255297175
697.9472492701227,0.4979908736644136,160.02850287789317
696.4754999927626,0.4969086427477872,157.2558916672392
695.0094676591519,0.49583166482757873,154.53630079883442
693.5491522581804,0.4947599247346394,151.86867510846724
692.094547051819,0.4936934025069925,149.2519690008333
690.6456416325415,0.49263207565057876,146.68515228747407
689.2024199494217,0.4915759177065945,144.16720678718087
687.764862341487,0.4905248997551376,141.69713005502052
686.3329462606767,0.4894789909534159,139.2739365693704
684.9066449767903,0.4884381575988413,136.89665545882355
683.4859296055234,0.48740236461882147,134.56433382963746
682.0707685662826,0.48637157518086943,132.27603565639183
680.6611276226554,0.48534575072858,130.03084167082096
679.256970742812,0.4843248516131673,127.82785051753766
677.8582602976197,0.4833088372406001,125.66617877051027
676.4649570325231,0.48229766605376384,123.54496058253562
675.0770205165505,0.481291295860473,121.46334805202184
673.6944088712353,0.48028968363825486,119.4205104774725
672.3170799199252,0.47929278636775,117.41563570521623
670.9449897732776,0.47830056000846266,115.44792768471797
669.5780946417376,0.4773129608104296,113.51660873815018
668.2163497754085,0.47632994454619726,111.62091763881361
666.8597104084554,0.47535146719197885,109.76011056000246
665.5081309624569,0.47437748435115895,107.93345958149472
664.161566006121,0.47340795194484847,106.1402536226567
662.8199697593539,0.4724428258521623,104.3797973750867
661.4832962369967,0.4714820620119486,102.65141112415218
660.1514997417008,0.4705256167746468,100.95443100468762
658.8245345767889,0.4695734466929191,99.28820823914812
657.502354912749,0.4686255084234736,97.65210860673196
656.1849155014824,0.4676817592364431,96.04551296255
654.8721707289294,0.4667421563334271,94.46781570794934
653.5640755570498,0.46580665751960054,92.91842559184641
652.2605851974034,0.46487522096652517,91.39676495345793
650.9616549558614,0.4639478050983101,89.9022692040073
649.6672404526272,0.4630243687459979,88.4343867554554
648.3772980806731,0.4621048714711084,86.99257920079648
647.0917838874208,0.46118927276506705,85.57631973495671
645.8106547582922,0.4602775328900599,84.18509417278912
644.5338676583581,0.4593696123355268,82.8183997999459
643.2613803077709,0.4584654722956526,81.47574580481427
641.9931503622139,0.4575650740836379,80.15665211326535
640.7291361609243,0.4566683796603983,78.86064990061732
639.4692963265614,0.45577535134724767,77.58728089266913
638.2135901239283,0.4548859520772434,76.33609746013983
636.9619769880376,0.4540001450577401,75.10666187975166
635.7144166577298,0.45311789386261747,73.8985462244961
634.4708694836846,0.45223916264729314,72.71133241447279
633.2312963276015,0.4513639160742106,71.54461186734453
631.9956581138463,0.450492118993601,70.39798484370226
630.7639163937248,0.4496237368393707,69.27106075384316
629.5360331814542,0.4487587355103386,68.16345777413491
628.3119708146828,0.44789708126931854,67.07480250405281
627.0916919506252,0.44703874073804306,66.00472975761595
625.8751598215359,0.4461836810743527,64.95288258315078
624.662337863778,0.445331869708824,63.91891173960532
623.4531901325363,0.44448327463378434,62.90247586074457
622.2476808623203,0.4436378640922265,61.903240891905156
621.0457746735807,0.44279560672074914,60.92088008696359
619.8474368257326,0.4419564717243671,59.955074032718954
618.6526326134695,0.44112042845132676,59.005509984965386
617.461327961448,0.44028744680744003,58.07188218206011
616.273488986191,0.4394574969472628,57.153891330927294
615.0890822331255,0.4386305494378653,56.25124463685918
613.9080747070285,0.4378065752778156,55.36365566794464
612.7304335759657,0.43698554568855463,54.49084398147127
611.5561264867388,0.43616743233256666,53.6325352163648
610.3851213942663,0.4353522071923596,52.788460822068984
609.217386547304,0.43453984255871014,51.958357911846576
608.0528906073057,0.4337303111115023,51.14196921307216
606.8916025208831,0.43292358582912804,50.3390428448441
