T(K),partition function,internal energy,free energy,chemical entropy,q variance 1,q variance 2,q avg 1,q avg 2,q square avg 1,q square avg 2
2000.0,17.405792431108107,-0.2077322431303597,-0.4923604786562058,0.00014231411776292305,1.2779286185634566,0.8151201912704342,-2.38141129419786,-2.0575956719255553e-16,6.949048370696582,0.8151201912704342
1980.1010101010102,17.61968272013098,-0.21117410449994808,-0.48954576429235125,0.00014058457541931291,1.2595083921937134,0.8095184709034284,-2.3847200700481146,-2.059112822598886e-16,6.946398204683998,0.8095184709034284
1960.20202020202,17.844269789908896,-0.2145996303747072,-0.4867655574375242,0.0001388458558137632,1.2412492434427005,0.8039396155133558,-2.387983403733424,-2.0598853855581177e-16,6.943713979948971,0.8039396155133558
1940.3030303030303,18.08016575518744,-0.2180083871403222,-0.4840200403688603,0.0001370979940112722,1.223156060827959,0.7983843541232347,-2.3912002175488603,-2.059891875713425e-16,6.9409945412336755,0.7983843541232347
1920.4040404040404,18.328028396836128,-0.2213999340433488,-0.48130939461847094,0.0001353410298597575,1.2052337138134384,0.7928534358692677,-2.394369444603031,-2.059110327354628e-16,6.938238751062066,0.7928534358692677
1900.5050505050506,18.588565301639193,-0.22477382319605904,-0.4786338008763195,0.00013357500818679663,1.187487044958993,0.7873476305221337,-2.3974900308231555,-2.0575182930160557e-16,6.935445492855408,0.7873476305221337
1880.6060606060605,18.862538443527,-0.22812959958461784,-0.4759934388891072,0.00013179997900496536,1.1699208617222858,0.7818677290210047,-2.4005609370515835,-2.0550928449393132e-16,6.932613674220263,0.7818677290210047
1860.7070707070707,19.150769260393893,-0.2314668010802162,-0.47338848735497585,0.00013001599772651434,1.1525399279189896,0.7764145440205499,-2.4035811412339396,-2.0518105795647722e-16,6.929742230414437,0.7764145440205499
1840.8080808080808,19.45414428816679,-0.23478495845273528,-0.4708191238138384,0.00012822312538821997,1.1353489548472995,0.7709889104510954,-2.406549640698684,-2.0476476255265334e-16,6.926830127994264,0.7709889104510954
1820.909090909091,19.77362142247165,-0.23808359538639806,-0.4682855245331323,0.00012642142888737276,1.1183525920869144,0.7655916860920559,-2.409465454527182,-2.0425796556711108e-16,6.923876368646795,0.7655916860920559
1801.010101010101,20.110236888291773,-0.2413622284968157,-0.4657878643887475,0.0001246109812299565,1.1015554179832092,0.7602237521588058,-2.4123276260133757,-2.0365819036692324e-16,6.920879993210538,0.7602237521588058
1781.111111111111,20.46511300966954,-0.24462036734869455,-0.4633263167408947,0.00012279186179225211,1.084961929832832,0.7548860139029614,-2.415135225210855,-2.0296291858401143e-16,6.91784008588712,0.7548860139029614
1761.2121212121212,20.839466885040498,-0.24785751447339718,-0.4609010533046164,0.00012096415659721667,1.0685765337869944,0.7495794012261234,-2.4178873515651667,-2.0216959288603716e-16,6.9147557786458105,0.7495794012261234
1741.3131313131312,21.23462008956086,-0.25107316538542124,-0.458512244014642,0.00011912795860718639,1.0524035344950482,0.7443048693069322,-2.420583136628044,-2.0127562040835852e-16,6.9116262558231085,0.7443048693069322
1721.4141414141413,21.652009544187504,-0.2542668085967359,-0.4561600568842401,0.00011728336803463748,1.0364471245115103,0.7390633992412626,-2.4232217468497743,-2.0027837692517931e-16,6.908450758917182,0.7390633992412626
1701.5151515151515,22.093199712789616,-0.25743792562779605,-0.45384465785769257,0.0001154304926729579,1.0207113734966358,0.7338559986952286,-2.4258023864447824,-1.991752118435785e-16,6.9052285915778375,0.7338559986952286
1681.6161616161617,22.559896313792084,-0.26058599101390706,-0.45156621065596775,0.0001135694482494234,1.0052002172419598,0.7286837025705021,-2.4283243003249657,-1.9796345410968215e-16,6.901959124790694,0.7286837025705021
1661.7171717171718,23.05396176248262,-0.2637104723054629,-0.44932487661513115,0.00011170035880285184,0.989917446558624,0.7235475736813719,-2.4307867770939127,-1.9664041912172132e-16,6.898641802253235,0.7235475736813719
1641.8181818181818,23.57743259500616,-0.26681083006045087,-0.4471208145169716,0.00010982335708868927,0.9748666960696379,0.7184487034426305,-2.4331891520945272,-1.952034167500246e-16,6.895276145940122,0.7184487034426305
1621.919191919192,24.132539166259996,-0.269886517827436,-0.44495418041126694,0.00010793858501463077,0.9600514329537528,0.7133882125672483,-2.4355308105008975,-1.9364976056898513e-16,6.891861761852911,0.7133882125672483
1602.020202020202,24.721727962647872,-0.27293698211707584,-0.44282512742905117,0.0001060461941102494,0.9454749456912994,0.7083672517724218,-2.4378111904445983,-1.9197677841062445e-16,6.888398345948208,0.7083672517724218
1582.121212121212,25.34768692848331,-0.2759616623600733,-0.440733805586167,0.00010414634603449708,0.9311403328711556,0.7033870024923309,-2.4400297861637217,-1.901818243533705e-16,6.884885690237333,0.7033870024923309
1562.2222222222222,26.013374273630877,-0.27895999084928375,-0.43868036157630375,0.00010223921312540398,0.9170504921207634,0.6984486775954736,-2.442186151161998,-1.8826229226288131e-16,6.881323689048217,0.6984486775954736
1542.3232323232323,26.722051312042925,-0.28193139266354916,-0.4366649385526411,0.00010032497899679155,0.903208109228709,0.6935535221040149,-2.444279901363572,-1.8621563100398743e-16,6.877712345438622,0.6935535221040149
1522.4242424242425,27.47731997901558,-0.2848752855706498,-0.43468767589710533,9.840383918736132e-05,0.889615647535841,0.688702813912042,-2.4463107182474917,-1.8403936144387415e-16,6.8740517777484,0.688702813912042
1502.5252525252524,28.283165792759682,-0.28779107990663866,-0.4327487089761406,9.64760018681055e-05,0.8762753376757324,0.6838978644990161,-2.448278351944437,-1.81731095366156e-16,6.8703422262755005,0.6838978644990161
1482.6262626262626,29.144007167586672,-0.29067817842867494,-0.4308481688817671,9.454168861463497e-05,0.8631891677535535,0.6791400196339614,-2.4501826242763562,-1.7928855641326146e-16,6.866584060059325,0.6791400196339614
1462.7272727272727,30.06475215704196,-0.29353597613835614,-0.42898618215656603,9.260113525172835e-05,0.8503588740583758,0.6744306600650642,-2.4520234317178002,-1.7670960317016265e-16,6.862777783751514,0.6744306600650642
1442.8282828282827,31.050863912395553,-0.2963638600724527,-0.42716287050107604,9.065459277816937e-05,0.8377859324101156,0.6697712021884619,-2.4538007482562065,-1.739922544955825e-16,6.858924044552834,0.6697712021884619
1422.9292929292928,32.10843639344367,-0.2991612090579191,-0.42537835046191064,8.870232838074227e-05,0.8254715502503807,0.6651630986887854,-2.455514628126068,-1.711347171969949e-16,6.855023639191483,0.6651630986887854
1403.030303030303,33.24428217516478,-0.3019273934280185,-0.42363273309873345,8.674462654716184e-05,0.8134166595911898,0.6606078391427973,-2.4571652083905,-1.6813541613245447e-16,6.8510775209159185,0.6606078391427973
1383.1313131313132,34.46603456875426,-0.30466177469645755,-0.4219261236280156,8.478179028864564e-05,0.801621910944224,0.6561069505759318,-2.458752711341166,-1.6499302680516322e-16,6.84708680647176,0.6561069505759318
1363.2323232323233,35.78226673584214,-0.30736370518656303,-0.42025862104127537,8.28141424838213e-05,0.7900876683566986,0.6516619979598923,-2.4602774466863697,-1.6170651049504198e-16,6.843052783030301,0.6516619979598923
1343.3333333333333,37.20263104179085,-0.31003252761270245,-0.4186303176952659,8.084202735674698e-05,0.7788140056881607,0.6472745846374551,-2.461739813494563,-1.5827515194488397e-16,6.838976915032406,0.6472745846374551
1323.4343434343434,38.738022595338585,-0.3126675746115025,-0.41704129887130076,7.886581210288525e-05,0.7678007042654107,0.6429463526584293,-2.4631403018592595,-1.546985995863263e-16,6.8348608509087345,0.6429463526584293
1303.5353535353534,40.400771792762775,-0.315268168220823,-0.4154916423006336,7.68858886780415e-05,0.7570472520578475,0.6386789830081661,-2.4644794942494834,-1.509769082521629e-16,6.830706429634037,0.6386789830081661
1283.6363636363635,42.204871770609415,-0.31783361930508147,-0.41398141765247987,7.490267576638687e-05,0.7465528445188809,0.6344741957071839,-2.4657580665085495,-1.471105842758489e-16,6.826515687070861,0.6344741957071839
1263.7373737373737,44.16624803073538,-0.32036322692624924,-0.41251068598095497,7.291662094489544e-05,0.7363163872397145,0.6303337497570675,-2.4669767884626985,-1.4310063282562562e-16,6.822290862053444,0.6303337497570675
1243.8383838383838,46.303079211497554,-0.32285627766085406,-0.41107949912683756,7.092820306263086e-05,0.7263365005639661,0.6262594429042324,-2.468136524100179,-1.389486072589909e-16,6.81803440216128,0.6262594429042324
1223.939393939394,48.63618013958846,-0.3253120448645756,-0.40968789906968656,6.893793485438627e-05,0.7166115263075792,0.622253111188849,-2.4692382312811536,-1.3465666021246343e-16,6.813748969128059,0.622253111188849
1204.0404040404042,51.18946103996594,-0.3277297878875268,-0.40833591722544915,6.694636580918045e-05,0.7071395367265856,0.6183166282415803,-2.470282960938391,-1.3022759606129775e-16,6.809437443829131,0.6183166282415803
1184.141414141414,53.990480280702506,-0.3301087512452021,-0.40702357368427816,6.49540853149239e-05,0.697918345867877,0.6144519042854347,-2.4712718557294773,-1.256649242933849e-16,6.805102930788491,0.6144519042854347
1164.2424242424242,57.07111251691526,-0.3324481637523478,-0.4057508763828417,6.2961726101153e-05,0.6889455234278916,0.610660884794222,-2.4722061481025746,-1.209729132407736e-16,6.80074876214406,0.610660884794222
1144.3434343434342,60.46835988290407,-0.33474723762969344,-0.4045178202049798,6.096996800205975e-05,0.6802184112318965,0.6069455487523753,-2.4730871577394895,-1.161566435008187e-16,6.796378501007883,0.6069455487523753
1124.4444444444443,64.22534138087707,-0.33700516759676125,-0.4033243860041073,5.897954206186903e-05,0.6717341424283765,0.6033079064538163,-2.4739162883429984,-1.1122206025704245e-16,6.791995944157174,0.6033079064538163
1104.5454545454545,68.3925053924487,-0.33922112996772374,-0.402170539540341,5.699123500401561e-05,0.6634896634701946,0.5997499967693474,-2.4746950237392884,-1.06176023577738e-16,6.787605123990192,0.5997499967693474
1084.6464646464647,73.02912306456211,-0.34139428177178394,-0.40105623032490656,5.500589408417899e-05,0.6554817589276807,0.5962738838033694,-2.4754249232713748,-1.0102635562899614e-16,6.783210309680772,0.5962738838033694
1064.7474747474748,78.20513725028496,-0.3435237599247219,-0.39998139036400476,5.302443234502422e-05,0.6477070791435064,0.5928816528511845,-2.4761076164660896,-9.578188358948434e-17,6.7788160074648856,0.5928816528511845
1044.8484848484848,84.00346417635305,-0.3456086804842478,-0.3989459327939944,5.1047834287170436e-05,0.640162170699667,0.5895754055578227,-2.4767447969648617,-9.045247689889908e-17,6.774426959992181,0.5895754055578227
1024.949494949495,90.52287509583722,-0.34764813802869676,-0.3979497503994998,4.9077161966192e-05,0.6328435096173752,0.5863572541684711,-2.4773382157183392,-8.504907731322807e-17,6.7700481446759,0.5863572541684711
1005.050505050505,97.88162571872996,-0.34964120520641023,-0.39699271400592223,4.711356151911244e-05,0.6257475371553065,0.5832293147490245,-2.4778896734557248,-7.958372008135781e-17,6.765684770973825,0.5832293147490245
985.1515151515151,106.22205623265644,-0.35158693251204737,-0.3960746707378391,4.5158270115383786e-05,0.6188706980046748,0.5801936992435011,-2.4784010124529905,-7.406954440377857e-17,6.761342276532683,0.5801936992435011
965.2525252525252,115.71645999218134,-0.3534843483559837,-0.3951954421349839,4.321262331646111e-05,0.6122094806054879,0.5772525062230118,-2.478874107638627,-6.852079119096221e-17,6.757026322126688,0.5772525062230118
945.3535353535353,126.5746227652594,-0.35533245950401476,-0.3943548221179472,4.127806281418219e-05,0.6057604592223322,0.5744078101693897,-2.4793108570921905,-6.295278601362388e-17,6.752742785317544,0.5744078101693897
925.4545454545455,139.05357883899381,-0.35713025197674464,-0.39355257479649713,3.9356144500714875e-05,0.5995203373215254,0.5716616491255929,-2.4797131720092547,-5.738190503823609e-17,6.748497752757725,0.5716616491255929
905.5555555555554,153.4703330051565,-0.3588766925112882,-0.3927884321145676,3.7448546801167467e-05,0.5934859916855455,0.5690160105357011,-2.4800829662259454,-5.182552167925715e-17,6.744297511049629,0.5690160105357011
885.6565656565656,170.2185847190088,-0.36057073070211054,-0.39206209132759123,3.555707917338719e-05,0.5876545165824512,0.5664728150902636,-2.4804221454173314,-4.630193168675514e-17,6.740148536059168,0.5664728150902636
865.7575757575758,189.79090190315608,-0.36221130195288115,-0.39137321231005867,3.368369064707239e-05,0.5820232671797081,0.564033898389489,-2.4807325961058084,-4.0830254438599217e-17,6.7360574805615725,0.564033898389489
845.8585858585859,212.8083866139583,-0.36379733138675197,-0.3907214146941167,3.1830478235360735e-05,0.5765899012553612,0.561700990238478,-2.4810161746374977,-3.543030833611017e-17,6.732031160068244,0.561700990238478
825.9595959595958,240.0607446496201,-0.36532773887819114,-0.3901062748437783,2.999969500541921e-05,0.5713524181133831,0.5594756913976621,-2.4812746963062713,-3.0122458428891147e-17,6.728076536643162,0.5594756913976621
806.060606060606,272.56095841588944,-0.3668014453847775,-0.38952732267410656,2.8193757539393203e-05,0.5663091934585411,0.5573594476299139,-2.481509924824962,-2.4927434737901154e-17,6.724200700463329,0.5573594476299139
786.1616161616162,311.62069100431563,-0.36821738077149957,-0.388984038330704,2.641525245228367e-05,0.5614590088322906,0.5553535209166377,-2.481723562360549,-1.986612022636111e-17,6.720410848807824,0.5553535209166377
766.2626262626263,358.95547728064713,-0.36957449333204945,-0.3884758487522063,2.466694155807447e-05,0.5568010740560734,0.5534589577619049,-2.4819172403634124,-1.4959308007030852e-17,6.71671426206921,0.5534589577619049
746.3636363636363,416.8332648805676,-0.37087176122012466,-0.38800212414745194,2.295176518886725e-05,0.5523350409805214,0.5516765545707233,-2.4820925114281005,-1.022742819265178e-17,6.713118276267977,0.5516765545707233
726.4646464646464,488.28690973695456,-0.37210820600713335,-0.3875621744298158,2.1272843073492222e-05,0.5480610067018796,0.5500068201795544,-2.482250842423135,-5.690245813183257e-18,6.709630251412243,0.5500068201795544
706.5656565656566,577.4224073526545,-0.3732829085789483,-0.3871552456640774,1.9633472071876757e-05,0.5439795042875799,0.5484499357399343,-2.482393609118159,-1.3665324546848806e-18,6.70625753487826,0.5484499357399343
686.6666666666665,689.8726813015581,-0.37439502757080806,-0.3867805165963913,1.8037119940169755e-05,0.5400914789634959,0.5470057123153215,-2.482522092516207,2.726284269623416e-18,6.703007418794543,0.5470057123153215
666.7676767676767,833.4763974522194,-0.3754438205130607,-0.3864370953556303,1.6487414170798253e-05,0.5363982476633335,0.5456735467534631,-2.4826374770655564,6.572487624222726e-18,6.699887090193765,0.5456735467534631
646.8686868686868,1019.3109402134389,-0.3764286678173418,-0.38612401643474753,1.4988124814540401e-05,0.5329014398426626,0.5444523766474905,-2.482740850878173,1.0158447344553406e-17,6.696903572461937,0.5444523766474905
626.969696969697,1263.2936316325834,-0.37734909966846003,-0.3858402380839325,1.3543140053677652e-05,0.5296029175325643,0.5433406355035322,-2.4828332080190854,1.3472994150209905e-17,6.694063656374907,0.5433406355035322
607.0707070707069,1588.713812770709,-0.37820482579648496,-0.38558464027314937,1.215643316455536e-05,0.5265046727721572,0.5423362095933455,-2.482915452853751,1.650778119569275e-17,6.691373818792106,0.5423362095933455
587.1717171717171,2030.3244427179757,-0.3789957679801523,-0.38535602340989134,1.083201939694077e-05,0.523608700845263,0.5414363983858972,-2.4829884063494467,1.925761821221746e-17,6.688840126911028,0.5414363983858972
567.2727272727273,2641.110838841501,-0.37972209496995,-0.3851531080281016,9.57390122430567e-06,0.5209168481908497,0.5406378809138018,-2.4830528141247963,2.1720761901228815e-17,6.68646812592392,0.5406378809138018
547.3737373737374,3503.7784653835456,-0.38038425930971215,-0.38497453569519846,8.386000408989575e-06,0.5184306345087206,0.5399366909213875,-2.4831093559335926,2.3899144188102132e-17,6.684262708033661,0.5399366909213875
527.4747474747473,4750.802947450374,-0.3809830352715382,-0.3848188714144321,7.272075414525015e-06,0.5161510495074966,0.5393282041289101,-2.483158656160974,2.5798518460229298e-17,6.682227961174671,0.5393282041289101
507.5757575757575,6600.51465399562,-0.3815195567932365,-0.38468460782695807,6.235622932108139e-06,0.514078326025663,0.5388071413815771,-2.483201294810645,2.7428503191666316e-17,6.680366996574927,0.5388071413815771
487.67676767676767,9424.273548173742,-0.381995353914431,-0.3845701715385286,5.279762733754429e-06,0.5122116930060034,0.5383675917572314,-2.4832378183808177,2.8802502765406434e-17,6.678681755642726,0.5383675917572314
467.7777777777778,13876.283476693692,-0.3824123857449,-0.38447393190458184,4.407105804545519e-06,0.5105491141498026,0.5380030597784917,-2.4832687499750237,2.99374872883387e-17,6.677172798752319,0.5380030597784917
447.87878787878776,21155.08949856089,-0.3827730674707672,-0.3843942125978712,3.6196068467139045e-06,0.5090870211597274,0.5377065405769405,-2.483294597983384,3.0853617262473785e-17,6.6758390815331845,0.5377065405769405
427.9797979797979,33555.32196853385,-0.3830802883265829,-0.38432930624542583,2.9184039170509338e-06,0.5078200544347462,0.5374706260215878,-2.4833158627098655,3.157370567224529e-17,6.67467772842119,0.5374706260215878
408.0808080808081,55693.99760199821,-0.3833374168684258,-0.3842774923446213,2.3036503005779752e-06,0.50674082897521,0.5372876432658724,-2.4833330404195872,3.212251988153309e-17,6.673683818614801,0.5372876432658724
388.181818181818,97400.95912882184,-0.3835482893387095,-0.3842370585366476,1.774346879934186e-06,0.5058397490161441,0.5371498247106458,-2.483346624440377,3.25259390590529e-17,6.672850206135558,0.5371498247106458
368.2828282828282,181002.17357236656,-0.3837171765253455,-0.3842063251123514,1.3281873316946775e-06,0.5051049011589859,0.5370495049103101,-2.4833571031724526,3.2809999659451376e-17,6.672167403036061,0.5370495049103101
348.38383838383834,361130.7762838624,-0.3838487244574485,-0.38418367233199413,9.614334467966836e-07,0.5045220616398716,0.5369793354971283,-2.483364955130464,3.299988110048375e-17,6.671623562010002,0.5369793354971283
328.4848484848485,783592.4367809577,-0.3839478648014981,-0.3841675697413357,6.688434515350801e-07,0.5040748572001901,0.5369325040624302,-2.4833706414466366,3.311890441908008e-17,6.671204599999269,0.5369325040624302
308.58585858585843,1879266.4353958254,-0.38401969227932964,-0.3841566061560021,4.436816298060506e-07,0.5037451181031001,0.5369029378210876,-2.483374596577438,3.318763500219044e-17,6.670894505029254,0.5369029378210876
288.6868686868686,5085414.773031065,-0.38406930926648697,-0.3841495183815068,2.778412311743406e-07,0.5035134522685398,0.5368854690392065,-2.4833772182445295,3.322319114677739e-17,6.670675860364478,0.5368854690392065
268.78787878787875,15948895.194425331,-0.38410164241457695,-0.38414521609777075,1.621117864030827e-07,0.5033600465196013,0.5368759384065442,-2.4833788578592957,3.323885602159474e-17,6.6705305981821414,0.5368759384065442
248.8888888888889,60055023.630114384,-0.384121242978582,-0.3841427997955102,8.661221087211123e-08,0.5032656602587915,0.5368712168280121,-2.4833798127760542,3.324406379859616e-17,6.670440954762421,0.5368712168280121
228.98989898989885,284754297.813081,-0.38413209125908004,-0.3841415684383364,4.138688779798772e-08,0.5032127177951402,0.5368691370288049,-2.4833803216387778,3.32447761819436e-17,6.670390539697859,0.5368691370288049
209.090909090909,1815771103.8834038,-0.384137434670799,-0.38414101397893485,1.7118430214819837e-08,0.5031863362117228,0.5368683435924413,-2.4833805637916933,3.3244186552095125e-17,6.670365360830071,0.5368683435924413
