temperature,internal energy,partition function,free energy,chemical entropy,q variance 1,q variance 2,q avg 1,q avg 2,q square avg 1,q square avg 2,state 1 pop,state 2 pop
10000.0,-1.8998392389001413,243.6691880835025,-4.735923939199141,0.00028360847002989996,5.37328998512492,0.7306757841742095,-4.380729344285607,0.0,24.564079573009924,0.7306757841742095,0.917430579238081,0.082569420761919
9678.355969932576,-1.9161336201826167,262.27625533720413,-4.6449683880486194,0.00028195230433180826,5.076416163674608,0.7268919850554234,-4.4263284825623925,0.0,24.6687999992177,0.7268919850554234,0.9235105017760622,0.07648949822393787
8877.947081489861,-1.9558181326127555,323.354819076475,-4.420988291037924,0.00027767344587634933,4.32942611591163,0.7170241965945857,-4.538064412934808,0.0,24.92345473185697,0.7170241965945857,0.9384099724369113,0.061590027563088665
8053.963450342246,-1.995160935601004,421.16898657722476,-4.194088511276037,0.00027302428043444766,3.566522756845803,0.7059992460869552,-4.647957541023597,0.0,25.17003206000393,0.7059992460869552,0.9530672337521311,0.04693276624786882
7160.599764129914,-2.035458034750436,605.1609559635097,-3.952527943633231,0.0002677247677612293,2.780930773857996,0.6927493812275717,-4.756778190290506,0.0,25.407869525481416,0.6927493812275717,0.9675868865543037,0.0324131134456963
6232.757509129481,-2.0736888174995243,993.7305603050074,-3.706760093036304,0.00026201424861222757,2.0588501062246785,0.6771768942155686,-4.852668131474095,0.0,25.607238100448964,0.6771768942155686,0.9803885240641443,0.019611475935855684
5275.241177821737,-2.1081273533561515,2015.400863720316,-3.4587441929298204,0.00025602940112993435,1.468008087490027,0.6587128759413376,-4.927241033949336,0.0,25.74571229412415,0.6587128759413376,0.9903545009839366,0.009645499016063435
4340.664602564914,-2.13629400487463,5510.356506573569,-3.2222065503201707,0.00025017195403760774,1.0771400846356372,0.6379785661806466,-4.972710320302661,0.0,25.80498801428023,0.6379785661806466,0.9964454162766031,0.0035545837233969886
3504.3666346073596,-2.1574185139215136,21690.796408696184,-3.0151920602916773,0.00024477277517118905,0.8760969120922262,0.6173023734913685,-4.99218797753406,0.0,25.798037715127837,0.6173023734913685,0.9990723752392645,0.0009276247607355304
2907.217012828816,-2.170659425946505,94536.16908895869,-2.870194404800114,0.0002406201448900228,0.7950102059069373,0.6020351992620212,-4.997300613549877,0.0,25.768023628092912,0.6020351992620212,0.9997773884271267,0.00022261157287333945
2560.1355183585692,-2.1776725510513057,306630.3124374439,-2.787122297047561,0.0002380537052144036,0.7623192010716053,0.5935134048483753,-4.998327748833816,0.0,25.74559948583373,0.5935134048483753,0.9999282370174517,7.17629825482216e-05
2287.1552389331805,-2.18272039900129,997459.9108273946,-2.7224224257491034,0.00023597087664217832,0.7412561402288809,0.5873364176558461,-4.998610773713921,0.0,25.727365807317764,0.5873364176558461,0.9999767985339733,2.3201466026750596e-05
2069.100636341987,-2.1863524056333583,3207840.3924768153,-2.6711510797050555,0.0002343040573071325,0.7266661914262187,0.5829320253452291,-4.9986645810921555,0.0,25.713313785691433,0.5829320253452291,0.9999923843677371,7.615632262938943e-06
1892.6064161751844,-2.188958986251097,10072647.383980097,-2.6299162538968845,0.00023298941812578702,0.7161914032686703,0.5798244977862703,-4.998653320998316,0.0,25.702726426796165,0.5798244977862703,0.9999974348619234,2.565138076572352e-06
1745.6710840383907,-2.1908568100088455,31188938.152263645,-2.595761092638899,0.00023194763683279817,0.7084161003955991,0.5776097902183078,-4.99862685172165,0.0,25.694686503148297,0.5776097902183078,0.9999991225192869,8.774807130960062e-07
1618.8377794397302,-2.19227007334013,97662870.25573614,-2.5663978566152665,0.00023110887825006143,0.7024513125426388,0.5760004673939482,-4.998599024913617,0.0,25.688443524410005,0.5760004673939482,0.999999702525959,2.974740410311022e-07
1506.843040750796,-2.193330847530411,314139594.10185945,-2.540554306179335,0.00023043107295098037,0.6978048236942591,0.5748254319682176,-4.998573511009693,0.0,25.683541968662027,0.5748254319682176,0.9999999015643872,9.843561285021769e-08
1408.2884682603349,-2.1941134024979094,1024691949.5965649,-2.517871660393955,0.00022989484412663385,0.6942254632649316,0.5739849662283759,-4.99855141772369,0.0,25.679741738892446,0.5739849662283759,0.9999999678252196,3.2174780390324566e-08
1323.0271657273847,-2.19467583069443,3286080216.5597596,-2.4982892635478775,0.00022948389928677281,0.691526932261123,0.5734011698849389,-4.9985329398013,0.0,25.67685848253975,0.5734011698849389,0.9999999893054614,1.0694538664894636e-08
1249.5057141143332,-2.1950773151098844,10201039774.717377,-2.481430324204225,0.00022917302887030924,0.6895000179042263,0.572999530156726,-4.9985175859638264,0.0,25.674678075093865,0.572999530156726,0.9999999963325747,3.6674251306939798e-09
1184.5157247476989,-2.195370253915903,31221390497.353542,-2.4665457966752937,0.0002289336790502726,0.6879382312038373,0.572717717507047,-4.998504518301761,0.0,25.672985650686957,0.572717717507047,0.99999999872495,1.2750500364228672e-09
1124.888368349368,-2.195590471264601,97635504462.64758,-2.4529019930213924,0.00022874405051797616,0.6866911397729574,0.57251451121636,-4.998492994043697,0.0,25.671623351276878,0.57251451121636,0.999999999565513,4.3448696138245545e-10
1069.218309720904,-2.195756970269462,317536467595.92126,-2.4401725366241456,0.00022859276177049657,0.6856819678156434,0.57236774986681,-4.998482662143848,0.0,25.670510891568295,0.57236774986681,0.9999999998572969,1.4270307924085993e-10
1018.1602770735374,-2.1958793695506578,1049110146733.1832,-2.4285042071103624,0.0002284756563360831,0.6848822588333583,0.5722652664515725,-4.9984735496655235,0.0,25.66962008553922,0.5722652664515725,0.9999999999538154,4.618463994962218e-11
972.8240430980569,-2.195966465573702,3368031395320.945,-2.418148626013539,0.00022838884587214297,0.6842677200694531,0.5721965217595102,-4.998465718579151,0.0,25.668927259880444,0.5721965217595102,0.9999999999846403,1.5359678055083008e-11
932.9065939921492,-2.196028433262549,10331501980848.432,-2.4090343782406753,0.00022832505027820484,0.6837966798407891,0.5721507702264084,-4.998459002210928,0.0,25.668389076624255,0.5721507702264084,0.9999999999946673,5.332815168315156e-12
896.6123728620765,-2.196073939436405,31217595718792.312,-2.4007496094204033,0.0002282766512920775,0.683421835595297,0.572119392344413,-4.998453077257403,0.0,25.667955001139298,0.572119392344413,0.9999999999981218,1.878178314527849e-12
862.0237544356462,-2.1961084712976353,97657941823141.7,-2.3928553587063974,0.00022823835932174436,0.6831089397238159,0.572097154052176,-4.998447642704583,0.0,25.667587776582824,0.572097154052176,0.9999999999993598,6.40192515314168e-13
828.5227170313512,-2.1961345757046575,322752388375382.25,-2.385209726484584,0.00022820756376770788,0.6828443206428005,0.5720815368920232,-4.998442600873364,0.0,25.66727275486848,0.5720815368920232,0.9999999999997928,2.0719904676245989e-13
797.1184564652368,-2.196153451290852,1084347275158932.8,-2.378043195153146,0.00022818408278848623,0.6826281221471895,0.5720711788975182,-4.99843807019265,0.0,25.667011263698413,0.5720711788975182,0.9999999999999339,6.602991177330393e-14
769.0746639412846,-2.196166906288145,3479258657074084.0,-2.3716447889432963,0.0002281675510617893,0.6824591671643319,0.5720646383959237,-4.998434132875653,0.0,25.666802947860713,0.5720646383959237,0.999999999999978,2.1976360517825136e-14
744.2939860800009,-2.196176924618751,1.048698635101326e+16,-2.3659918214025324,0.00022815567498825516,0.6823274212065478,0.5720604702564699,-4.998430705479403,0.0,25.66663693868587,0.5720604702564699,0.9999999999999922,7.758890355658235e-15
721.3586434478938,-2.196184442037161,3.1150894575985776e+16,-2.3607601528768116,0.00022814686194515488,0.682219153655268,0.5720577392715336,-4.998427638155118,0.0,25.666498007528215,0.5720577392715336,0.9999999999999972,2.777368461034679e-15
698.7605882442564,-2.1961899744605304,9.765463355747e+16,-2.355605213901249,0.00022813999833801987,0.6821244646731657,0.5720559531432924,-4.998424773370141,0.0,25.666374679713513,0.5720559531432924,0.999999999999999,9.449026324685242e-16
676.1639711128458,-2.1961937702292116,3.3040202428864237e+17,-2.3504497704456297,0.00022813401305979108,0.6820408492477235,0.5720548841869446,-4.998422082347411,0.0,25.666264162545954,0.5720548841869446,0.9999999999999997,2.9914620089183687e-16
654.7291026813859,-2.196196104761323,1.1348685356825102e+18,-2.3455592418446427,0.00022812967450448713,0.6819710133416486,0.5720543537062107,-4.998419678788474,0.0,25.666170298641518,0.5720543537062107,0.9999999999999999,9.336804752088318e-17
635.7446841471325,-2.1961981318298505,3.628842181886162e+18,-2.3412288120148745,0.0002281272400721469,0.6819162854078762,0.5720540312439317,-4.99841758034147,0.0,25.66609459287455,0.5720540312439317,1.0,3.117752626535069e-17
619.0957849075011,-2.1962004233367125,1.0665279141596496e+19,-2.337431721147446,0.00022812511610272813,0.6818734097165198,0.5720537259572857,-4.998415715490898,0.0,25.666033074582906,0.5720537259572857,1.0,1.1272988943636743e-17
603.4594745732081,-2.1962021702345873,3.099033662721349e+19,-2.3338656469622436,0.00022812381365793904,0.6818372470040153,0.5720535381808419,-4.998414045552269,0.0,25.665980217778216,0.5720535381808419,1.0,4.1201020414997704e-18
587.4849208248312,-2.1962030824615564,9.771542088018644e+19,-2.330221977711617,0.00022812312367421692,0.6818041682521496,0.5720535062559506,-4.99841248060555,0.0,25.665931494525477,0.5720535062559506,1.0,1.3941056054661961e-18
570.9853030251608,-2.196203107937349,3.4227753123602747e+20,-2.3264572038390843,0.00022812162626889118,0.6817738408466205,0.5720536264962706,-4.998411020473946,0.0,25.665886570442016,0.5720536264962706,1.0,4.2715141702448797e-19
555.2698909212905,-2.1962024538407934,1.210600896765702e+21,-2.3228712112516754,0.00022812106235531023,0.6817483273592906,0.57205384383281,-4.998409762673371,0.0,25.66584848294776,0.57205384383281,1.0,1.2968757380156114e-19
541.6475239048489,-2.1962027797375834,3.83995202326759e+21,-2.3197641227354,0.00022812131052873122,0.6817286487190586,0.5720538642857627,-4.9984086229278475,0.0,25.665817410478518,0.5720538642857627,1.0,4.363599313493095e-20
529.9024016284999,-2.1962042828623947,1.0895870356293476e+22,-2.317085710557707,0.00022812017330704412,0.6817133658181262,0.5720536598128293,-4.998407544243106,0.0,25.665791344164525,0.5720536598128293,1.0,1.6309892592880124e-20
518.6970250355644,-2.1962052309257314,3.0796645475567056e+22,-2.3145303992047843,0.00022812000564479808,0.6817001972578822,0.5720535362827591,-4.998406605012901,0.0,25.66576878629448,0.5720535362827591,1.0,6.11866239774429e-21
506.7313554913548,-2.196205344024525,9.826297244171529e+22,-2.3118011284047317,0.00022812044908513473,0.6816875799054571,0.5720535459496517,-4.998405742234941,0.0,25.66574754391269,0.5720535459496517,1.0,2.0473217324784054e-21
493.9233878788957,-2.196204491241733,3.620578007626927e+23,-2.30887768634215,0.00022811876875132578,0.6816756226893901,0.572053709705298,-4.998404974662891,0.0,25.665727913424124,0.572053709705298,1.0,5.980536222328578e-22
483.2489954205525,-2.1962046918622855,1.1318094991084161e+24,-2.3064431349261256,0.00022811934242699037,0.6816667457569245,0.5720536807515003,-4.998404272308514,0.0,25.665712015188934,0.5720536807515003,1.0,2.0401373635373216e-22
473.0778048414226,-2.19620491401865,3.517367133619e+24,-2.304123387443123,0.00022811992513715117,0.6816591690926508,0.5720536408494872,-4.998403632975767,0.0,25.665698047237992,0.5720536408494872,1.0,6.998192716462351e-23
463.20221316238514,-2.1962049950564984,1.109283234501751e+25,-2.301870967670795,0.00022812061257844934,0.6816525879678004,0.5720536195564443,-4.998403058722692,0.0,25.665685725416164,0.5720536195564443,1.0,2.367510413362865e-23
453.55204412526393,-2.1962048870220277,3.5765455400724148e+25,-2.299669805575864,0.00022812138076322053,0.6816468487347684,0.572053626375696,-4.99840254864359,0.0,25.665674887021503,0.572053626375696,1.0,7.844091322581537e-24
444.248998994513,-2.1962047043025836,1.1601309954163586e+26,-2.2975477746625113,0.00022812222557462493,0.6816419171890189,0.572053643096651,-4.998402094090263,0.0,25.665665411394947,0.572053643096651,1.0,2.5841595897483266e-24
435.4597654855859,-2.196204678808876,3.693062012012759e+26,-2.29554307950599,0.00022812302896994572,0.6816377569143519,0.5720536314408701,-4.998401673988552,0.0,25.665657051445915,0.5720536314408701,1.0,8.665612336310047e-25
427.19480290149625,-2.1962048871969473,1.1459078302697827e+27,-2.293658111384906,0.00022812361837283324,0.6816342536138684,0.5720535792621838,-4.998401275858772,0.0,25.665649568120465,0.5720535792621838,1.0,2.9769303160133283e-25
419.2761200945887,-2.196205119109869,3.53586641163043e+27,-2.291852146305689,0.000228124194562385,0.68163124854836,0.5720535228799455,-4.998400911356582,0.0,25.665642919198675,0.5720535228799455,1.0,1.0280605467749415e-25
411.49387897476817,-2.1962051557338795,1.116242724947988e+28,-2.2900771765340044,0.00022812495056793037,0.6816286140375212,0.5720534997551222,-4.998400593777113,0.0,25.665637109908918,0.5720534997551222,1.0,3.474652783006412e-26
403.8000426476912,-2.1962049482987394,3.6329949785351024e+28,-2.288322167428287,0.00022812582813399693,0.6816263003608043,0.572053518472461,-4.998400325559052,0.0,25.66563211490964,0.572053518472461,1.0,1.1410581146803285e-26
396.3565406821233,-2.196204663080296,1.1885882411121062e+29,-2.2866242225193045,0.00022812682561866666,0.6816243133614179,0.5720535512008189,-4.9984000929196775,0.0,25.665627802260857,0.5720535512008189,1.0,3.728817670218575e-27
389.3555488127988,-2.1962046384065603,3.777111672897827e+29,-2.2850274098806502,0.00022812766312159497,0.6816226440520765,0.5720535406326605,-4.998399862516361,0.0,25.665623829655647,0.5720535406326605,1.0,1.2524485768255552e-27
382.7974124564025,-2.196204942982532,1.1592808649039371e+30,-2.283531775292322,0.00022812806322126272,0.681621239083821,0.5720534750902653,-4.998399623669442,0.0,25.665620036982645,0.5720534750902653,1.0,4.347069265639386e-28
376.4784731036238,-2.196205235911097,3.5440914882934857e+30,-2.2820907076034995,0.0002281285062181049,0.6816200284180702,0.5720534125323534,-4.9983994055777154,0.0,25.665616646097728,0.5720534125323534,1.0,1.5144300260140927e-28
370.1772340792153,-2.196205245021508,1.1219117192205433e+31,-2.280653512631911,0.0002281292846667386,0.6816189591542496,0.5720533991498626,-4.998399230975221,0.0,25.66561383136793,0.5720533991498626,1.0,5.10526335854863e-29
363.8666379578478,-2.1962049275918925,3.7027437611759203e+31,-2.279213914534276,0.00022813024961084656,0.6816180178689848,0.5720534422634347,-4.99839910357895,0.0,25.665611616527833,0.5720534422634347,1.0,1.654616891958006e-29
357.7550332406898,-2.196204521869319,1.2251088732867392e+32,-2.277819692889774,0.00022813144033544873,0.6816172144364359,0.5720535014854087,-4.998399001554563,0.0,25.665609793178085,0.5720535014854087,1.0,5.3499776467480484e-30
352.06073113362686,-2.1962045347456263,3.877783788307177e+32,-2.2765209381773115,0.0002281322406309513,0.6816165398706708,0.5720534903642489,-4.998398872134383,0.0,25.665607824824946,0.5720534903642489,1.0,1.803695546873352e-30
346.7641755724657,-2.1962049954364256,1.171640903082977e+33,-2.2753130884043005,0.00022813225396561517,0.6816159673729523,0.5720534037590997,-4.998398709564443,0.0,25.665605627148437,0.5720534037590997,1.0,6.353796014660948e-31
341.6249600545431,-2.196205365542557,3.539759233343378e+33,-2.2741411196587893,0.00022813249390146772,0.6816154723241716,0.5720533333805554,-4.998398567164152,0.0,25.66560370855282,0.5720533333805554,1.0,2.2383770728863153e-31
336.40307139747824,-2.1962053342125794,1.1269416048945668e+34,-2.272950077965566,0.00022813330280896407,0.6816150355808546,0.5720533320867747,-4.998398474348337,0.0,25.665602343948642,0.5720533320867747,1.0,7.505295583524432e-32
331.0950723051691,-2.1962048640700456,3.7964296760111873e+34,-2.2717390252210787,0.00022813435616889403,0.6816146560554799,0.5720534062892006,-4.998398435316685,0.0,25.66560157423176,0.5720534062892006,1.0,2.3858365199012507e-32
325.96656547403234,-2.196204287926779,1.2744713463775707e+35,-2.2705689518404726,0.00022813586358327788,0.6816143379282735,0.5720534993223588,-4.998398417316467,0.0,25.665601076160034,0.5720534993223588,1.0,7.609341821222728e-33
321.26328310205355,-2.1962043883315197,4.00353112713397e+35,-2.2694962691730485,0.00022813649955213424,0.6816140628064851,0.5720534774388799,-4.998398336210047,0.0,25.665599990233854,0.5720534774388799,1.0,2.5838556020954027e-33
316.9344403988129,-2.1962050775961486,1.1831017675360114e+36,-2.268509178477124,0.0002281358276809298,0.6816138191990149,0.5720533554859354,-4.998398199562291,0.0,25.665598380586566,0.5720533554859354,1.0,9.294522353183039e-34
312.69237077582375,-2.1962055283866575,3.5221499728459696e+36,-2.2675418572018966,0.0002281358148849168,0.6816136106935744,0.5720532747220803,-4.9983980943726,0.0,25.665597120521216,0.5720532747220803,1.0,3.320166990979649e-34
308.272654451846,-2.1962054346202997,1.13318143351044e+37,-2.2665337297537893,0.0002281366644684836,0.681613433032144,0.5720532873015582,-4.998398051147796,0.0,25.66559651075023,0.5720532873015582,1.0,1.1022700083504848e-34
303.7010776025631,-2.196204745077538,3.933329910999202e+37,-2.265490427414164,0.0002281377559920813,0.6816132892657869,0.572053402030772,-4.998398076169504,0.0,25.66559661712079,0.572053402030772,1.0,3.406485316559827e-35
299.31591369987,-2.19620391342035,1.3449266218413104e+38,-2.264489791849008,0.00022813981917823903,0.6816131757621768,0.572053541496659,-4.998398122712572,0.0,25.665596968898736,0.572053541496659,1.0,1.0677751080413611e-35
295.3906002266855,-2.1962041942191752,4.169659778802346e+38,-2.2635946029185257,0.0002281399903979152,0.6816130580141184,0.5720534911048871,-4.998398053541759,0.0,25.66559615966417,0.5720534911048871,1.0,3.6710468073056605e-36
291.8291874066375,-2.1962052056226202,1.1950545326984973e+39,-2.262782583497945,0.00022813817379601368,0.6816129393868948,0.5720533160708167,-4.9983979091285,0.0,25.665594597367058,0.5720533160708167,1.0,1.3592236543640489e-36
288.28682703226065,-2.196205726470427,3.494908494477675e+39,-2.261974876146611,0.0002281378943090744,0.6816128453216095,0.5720532251537348,-4.9983978213908555,0.0,25.665593626206462,0.5720532251537348,1.0,4.937703851416542e-37
284.4687656205281,-2.1962055458729206,1.144843670467193e+40,-2.2611038935309735,0.00022813874667922297,0.6816127757560579,0.5720532543043972,-4.998397811376186,0.0,25.66559345652631,0.5720532543043972,1.0,1.6116671655129888e-37
280.4383040222728,-2.1962045367755594,4.14889795079695e+40,-2.260183633553649,0.00022813965089807584,0.6816127366408651,0.5720534253173359,-4.998397894013375,0.0,25.665594243518207,0.5720534253173359,1.0,4.782166618633494e-38
277.0529742227344,-2.196204954798389,1.2595155536078576e+41,-2.2594116663323303,0.00022813944413073396,0.6816126729119993,0.5720533524985661,-4.9983978248300165,0.0,25.66559348817744,0.5720533524985661,1.0,1.677069529431014e-38
273.7621799672803,-2.196205331993749,3.8057443978286314e+41,-2.258661268817294,0.0002281393902949251,0.6816126174272235,0.572053286809573,-4.998397762337776,0.0,25.66559280797051,0.572053286809573,1.0,5.90741356281308e-39
270.41421783902695,-2.196205337492865,1.205064501508622e+42,-2.257897681810112,0.00022814016515200925,0.6816125774565442,0.5720532848129473,-4.99839774220096,0.0,25.665592566696198,0.5720532848129473,1.0,1.990930029333325e-39
266.99058173181015,-2.1962049184536916,4.03527196883793e+42,-2.2571165526998063,0.00022814150915368212,0.6816125541732845,0.5720533555455211,-4.99839777019395,0.0,25.66559282325314,0.5720533555455211,1.0,6.364920718749207e-40
