temperature,internal energy,partition function
2000.0,0.5609518936911178,0.26521378563608133
1996.2068277101218,0.5596243582219385,0.26358759188369973
1992.4280163395435,0.5583056257879601,0.2619751546212971
1988.6634844868734,0.5569956297786386,0.26037631837227815
1984.9131513647644,0.5556943042551631,0.25879092983852936
1981.176936794135,0.5544015839407785,0.2572188378642798
1977.4547611984574,0.5531174042112805,0.2556598934006562
1973.746545598105,0.5518417010856825,0.2541139494709172
1970.0522116047682,0.5505744112170466,0.25258086113635275
1966.371681415929,0.549315471883481,0.2510604854628332
1962.7048778094024,0.5480648209792955,0.2495526814879944
1959.0517241379314,0.5468223970063175,0.24805731018904467
1955.4121443238491,0.545588139065359,0.24657423445118118
1951.7860628537967,0.544361986847838,0.2451033190366011
1948.1734047735024,0.5431438806275473,0.24364443055409601
1944.5740956826137,0.5419337612525685,0.24219743742921646
1940.9880617295935,0.5407315701373326,0.2407622098749943
1937.4152296066657,0.5395372492548164,0.23933861986321187
1933.8555265448215,0.5383507411288789,0.2379265410962047
1930.3088803088804,0.5371719888267334,0.2365258489791886
1926.7752191926004,0.5360009359515514,0.23513642059309775
1923.2544720138487,0.5348375266351959,0.2337581346679249
1919.7465681098206,0.5336817055310831,0.232390871556552
1916.251437332311,0.5325334178071695,0.23103451320906127
1912.7690100430416,0.53139260913906,0.22968894314751678
1909.299217109032,0.5302592257032388,0.2283540464412066
1905.8419898980271,0.5291332141704157,0.2270297096823359
1902.3972602739725,0.5280145216989911,0.22571582096216158
1898.9649605925365,0.5269030959286314,0.22441226984755963
1895.5450236966824,0.5257988849739592,0.22311894735801557
1892.1373829122906,0.5247018374183494,0.2218357459430304
1888.7419720438234,0.5236119023078356,0.22056255945993197
1885.3587253700384,0.5225290291451191,0.21929928315208502
1881.9875776397516,0.5214531678836831,0.2180458136274906
1878.6284640676374,0.5203842689220064,0.21680204883776752
1875.2813203300827,0.5193222830978771,0.21556788805750798
1871.9460825610784,0.5182671616828043,0.21434323186399934
1868.6226873481594,0.5172188563765234,0.2131279821173054
1865.3110717283837,0.516177319301597,0.21192204194069936
1862.0111731843576,0.5151425029981064,0.2107253157014413
1858.7229296403013,0.5141143604184332,0.20953770899189395
1855.4462794581557,0.513092844922131,0.20835912861096909
1852.1811614337316,0.5120779102708809,0.20718948254589864
1848.9275147928995,0.5110695106235336,0.2060286799543236
1845.6852791878175,0.5100676005312363,0.2048766311466949
1842.4543946932006,0.5090721349326378,0.20373324756897931
1839.2348018026305,0.5080830691491773,0.20259844178566516
1836.0264414248988,0.5071003588804502,0.20147212746306137
1832.8292548803959,0.5061239601996508,0.20035421935288444
1829.6431838975298,0.5051538295490917,0.1992446332761274
1826.4681706091878,0.504189923735797,0.1981432861072053
1823.304157549234,0.5032321999271687,0.19705009575837193
1820.1510876490395,0.502280615646723,0.1959649811644026
1817.008904234054,0.5013351287698993,0.19488786226753746
1813.8775510204082,0.5003956975199362,0.1938186600026804
1810.756972111554,0.49946228046381386,0.1927572962828491
1807.647111994938,0.49853483650826647,0.19170369398487042
1804.5479155387115,0.49761332489585486,0.19065777693531755
1801.4593279884696,0.4966977052011064,0.189619469896683
1798.381294964029,0.4957879373267146,0.1885886985537843
1795.3137624562348,0.4948839814998028,0.18756538950039692
1792.2566768238037,0.49398579826824535,0.18654947022611026
1789.2099847901943,0.4930933484970491,0.185540869103403
1786.1736334405145,0.4922065933647929,0.18453951537493302
1783.1475702184575,0.4913254943601225,0.18354533914103838
1780.1317429232688,0.4904500132783029,0.18255827134744468
1777.126099706745,0.48958011221782405,0.18157824377317577
1774.1305890702627,0.48871575357706,0.18060518901866318
1771.1451598618369,0.4878569000509818,0.17963904049405127
1768.1697612732096,0.487003514627921,0.17867973240769372
1765.2043428369673,0.4861555605863834,0.17772719975483856
1762.248854423687,0.4853130014919137,0.17678137830649743
1759.3032462391132,0.4844758011940082,0.17584220459849642
1756.3674688213598,0.48364392382307436,0.17490961592070442
1753.441473038141,0.4828173337874386,0.17398355030643647
1750.5252100840337,0.48199599577039987,0.17306394652202803
1747.6186314777594,0.48117987472732743,0.1721507440565777
1744.721689059501,0.4803689358828041,0.171243883111855
1741.8343349882414,0.47956314472781236,0.1703433045923704
1738.9565217391303,0.47876246701696185,0.16944895009560415
1736.0882021008767,0.477966868765762,0.16856076190239164
1733.229329173167,0.47717631624793244,0.16767868296746213
1730.3798563641085,0.47639077599275503,0.16680265691012808
1727.5397373876986,0.47561021478246557,0.16593262800512215
1724.7089262613197,0.4748345996496839,0.1650685411735799
1721.8873773032549,0.47406389787488257,0.16421034197416473
1719.075045130233,0.47329807698389204,0.1633579765943329
1716.271884654995,0.47253710474544364,0.16251139184173632
1713.4778510838833,0.4717809491687474,0.1616705351357602
1710.692899914457,0.47102957850110627,0.16083535449919353
1707.9169869331283,0.47028296122556407,0.16000579855002972
1705.1500682128242,0.469541066058588,0.15918181649339544
1702.392100110667,0.46880386194778484,0.15836335811360494
1699.6430392656807,0.46807131806964886,0.15755037376633813
1696.9028425965212,0.46734340382734335,0.15674281437093981
1694.171467299221,0.46662008884851214,0.15594063140283826
1691.4488708449633,0.46590134298312375,0.15514377688608066
1688.7350109778752,0.4651871363013448,0.15435220338598393
1686.0298457128404,0.464477439091444,0.15356586400189826
1683.3333333333335,0.4637722218577247,0.15278471236008195
1680.6454323892763,0.4630714553184872,0.1520087026066853
1677.966101694915,0.4623751104040189,0.15123778940084162
1675.2953003267153,0.46168315825461176,0.15047192790786387
1672.6329876212778,0.4609955702186082,0.14971107379254464
1669.9791231732777,0.46031231785047183,0.14895518321255802
1667.3336668334168,0.45963337290888706,0.14820421281196144
1664.6965787064012,0.4589587073548822,0.14745811971479578
1662.0678191489362,0.45828829334997917,0.14671686151878222
1659.4473487677371,0.4576221032543675,0.1459803962891139
1656.8351284175644,0.45696010962510364,0.14524868255234102
1654.231119199272,0.4563022852143324,0.14452167929034765
1651.6352824578792,0.455648602967535,0.14379934593441882
1649.0475797806548,0.45499903602179675,0.14308164235939608
1646.4679729952247,0.4543535577041005,0.14236852887792045
1643.8964241676942,0.45371214152964046,0.14165996623476093
1641.332895600788,0.4530747612001585,0.14095591560122728
1638.7773498320084,0.45244139060230326,0.1402563385696656
1636.2297496318115,0.4518120038060074,0.1395611971480355
1633.6900580017973,0.45118657506288956,0.13887045375456708
1631.15823817292,0.4505650788046734,0.138184071212497
1628.6342536037137,0.44994748964162873,0.1375020127448816
1626.1180679785332,0.4493337823610314,0.13682424196948642
1623.609645205813,0.44872393192564275,0.13615072289375055
1621.1089494163425,0.4481179134722087,0.1354814199098245
1618.615944961554,0.44751570230997645,0.13481629778968068
1616.1305964118312,0.4469172739192307,0.13415532168029487
1613.6528685548294,0.4463226039498469,0.13349845709889785
1611.1827263938126,0.44573166821986343,0.1328456699282961
1608.720135146006,0.4451444427140699,0.13219692641225986
1606.2650602409635,0.4445609035826133,0.1315521931509783
1603.8174673189508,0.4439810271396218,0.13091143709657985
1601.37732222934,0.44340478986184295,0.1302746255487174
1598.9445910290237,0.4428321683873007,0.12964172615021666
1596.51923998084,0.44226313951396645,0.1290127068827871
1594.1012355520127,0.44169768019844696,0.12838753606279416
1591.6905444126076,0.4411357675546873,0.1277661823370922
1589.2871334339984,0.440577378852689,0.12714861467891636
1586.8909696873513,0.4400224915172435,0.12653480238383347
1584.5020204421203,0.43947108312667954,0.12592471506575004
1582.1202531645572,0.4389231314116265,0.12531832265297715
1579.7456355162337,0.43837861425378954,0.12471559538435106
1577.3781353525794,0.4378375096847416,0.12411650380540834
1575.0177207214304,0.4372997958847267,0.12352101876461537
1572.664359861592,0.43676545118147836,0.1229291114096506
1570.3180212014136,0.4362344540490506,0.12234075318373924
1567.978673357378,0.4357067831066617,0.12175591582203932
1565.6462851327017,0.4351824171175522,0.12117457134807826
1563.3208255159475,0.43466133498785386,0.12059669207023946
1561.0022636796502,0.4341435157654722,0.12002225057829767
1558.6905689789555,0.4336289386389812,0.1194512197400028
1556.3857109502685,0.4331175829365292,0.11888357269771113
1554.087659309916,0.4326094281247581,0.11831928286506321
1551.7963839528206,0.43210445380773255,0.11775832392370797
1549.5118549511856,0.43160263972588236,0.1172006698200719
1547.2340425531913,0.43110396575495485,0.11664629476217303
1544.9629171817057,0.4306084119049788,0.11609517321647861
1542.6984494330018,0.43011595831923977,0.11554727990480615
1540.440610075489,0.42962658527326547,0.11500258980126703
1538.1893700484577,0.42914027317382236,0.1144610781292518
1535.9447004608296,0.42865700255792194,0.11392272035845699
1533.7065725899226,0.42817675409183864,0.11338749220195232
1531.4749578802266,0.4276995085701363,0.11285536961328793
1529.2498279421886,0.4272252469147055,0.11232632878364113
1527.031154551008,0.4267539501738107,0.11180034613900174
1524.8189096454441,0.4262855995211468,0.11127739833739564
1522.6130653266332,0.4258201762549051,0.11075746226614604
1520.413593856915,0.42535766179684925,0.11024051503917148
1518.2204676586698,0.4248980376913995,0.1097265339943207
1516.033659313168,0.42444128560472705,0.10921549669074299
1513.8531415594248,0.42398738732385644,0.1087073809062942
1511.6788872930683,0.4235363247557776,0.10820216463497742
1509.5108695652175,0.42308807992656583,0.10769982608441803
1507.3490615813676,0.4226426349805108,0.10720034367337242
1505.193436700286,0.4221999721792541,0.10670369602927013
1503.04396843292,0.4217600739009344,0.1062098619857887
1500.900630441309,0.42132292263934223,0.10571882058046075
1498.7633965375103,0.4208885010030808,0.10523055105231292
1496.6322406825325,0.4204567917147366,0.10474503283953607
1494.5071369852776,0.4200277776100569,0.10426224557718643
1492.3880597014925,0.4196014416371352,0.10378216909491708
1490.2749832327295,0.4191777668556043,0.10330478341473942
1488.1678821253163,0.4187567364358374,0.102830068748814
1486.066731069332,0.41833833365815515,0.1023580054972706
1483.9715048975959,0.41792254191204153,0.10188857424605692
1481.882178584661,0.41750934469536677,0.1014217557648153
1479.7987272458192,0.4170987256136162,0.10095753100478747
1477.7211261361117,0.416690668379127,0.10049588109674648
1475.6493506493507,0.41628515681033257,0.10003678734895582
1473.583376317147,0.4158821748310116,0.09958023124515498
1471.523178807947,0.415481706469546,0.09912619444257123
1469.4687339260786,0.4150837358581845,0.09867465876995726
1467.4200176108016,0.41468824723231257,0.0982256062256543
1465.3770059353706,0.41429522492972953,0.09777901897568017
1463.3396751061027,0.41390465338993127,0.09733487935184215
1461.308001461454,0.4135165171533993,0.09689316984987427
1459.2819614711034,0.413130800860897,0.09645387312759834
1457.2615317350433,0.4127474892527713,0.09601697200310892
1455.2466889826808,0.41236656716825915,0.09558244945298144
1453.2374100719426,0.41198801954480274,0.09515028861050324
1451.233671988389,0.411611831417368,0.09472047276392746
1449.2354518443362,0.41123798791777016,0.09429298535474903
1447.2427268779854,0.41086647427400474,0.09386780997600282
1445.2554744525546,0.410497275809585,0.09344493037058328
1443.2736720554271,0.41013037794288304,0.09302433042958574
1441.2972972972973,0.4097657661864785,0.09260599419066849
1439.3263279113285,0.4094034261465115,0.09218990583643577
1437.360741752318,0.4090433435220417,0.09177604969284124
1435.4005167958658,0.4086855041044112,0.0913644102276116
1433.4456311375527,0.4083298937766152,0.0909549720486901
1431.496062992126,0.40797649851267537,0.09054771990269965
1429.5517906926873,0.40762530437701955,0.09014263867342534
1427.6127926898916,0.4072762975238667,0.08973971338031593
1425.6790475511514,0.40692946419661574,0.08933892917700426
1423.7505339598463,0.40658479072724135,0.088940271349846
1421.8272307145398,0.4062422635356917,0.08854372531647692
1419.9091167282022,0.4059018691292938,0.08814927662438789
1417.996171027441,0.4055635941021623,0.08775691094951796
1416.088372751735,0.405227425134613,0.08736661409486467
1414.1857011526765,0.40489334899258106,0.08697837198911182
1412.2881355932207,0.40456135252704384,0.0865921706852742
1410.3956555469358,0.404231422673449,0.08620799635935911
1408.5082405972673,0.4039035464511463,0.08582583530904442
1406.6258704368013,0.40357771096282324,0.08544567395237308
1404.7485248665357,0.40325390339394673,0.08506749882646361
1402.8761837951597,0.402932111012208,0.08469129658623645
1401.0088272383352,0.4026123211669719,0.08431705400315613
1399.1464353179879,0.4022945212887306,0.08394475796398879
1397.2889882615987,0.40197869888856197,0.08357439546957487
1395.436466401507,0.40166484155759075,0.08320595363361703
1393.588850174216,0.4013529369664556,0.0828394196814826
1391.7461201197023,0.40104297286477875,0.08247478094902097
1389.908256880734,0.40073493708064056,0.08211202488139514
1388.0752412021934,0.4004288175200576,0.08175113903192761
1386.2470539304034,0.40012460216646456,0.08139211106096031
1384.423676012461,0.39982227908020124,0.08103492873472834
1382.6050884955753,0.3995218363980011,0.08067957992424729
1380.7912725264102,0.3992232623324861,0.0803260526042142
1378.9822093504345,0.39892654517166354,0.0799743348519216
1377.1778803112734,0.39863167327842786,0.07962441484618478
1375.3782668500687,0.3983386350900646,0.07927628086628197
1373.5833505048424,0.3980474191177606,0.07892992129090722
1371.7931129098642,0.39775801394611393,0.07858532459713592
1370.0075357950266,0.3974704082326519,0.0782424793594027
1368.2266009852217,0.39718459070734907,0.07790137424849156
1366.4502903997266,0.39690055017215053,0.0775619980305381
1364.6785860515902,0.3966182755004979,0.0772243395660437
1362.9114700470252,0.3963377556368597,0.07688838780890137
1361.1489245848081,0.39605897959626374,0.0765541318054333
1359.3909319556797,0.3957819364638344,0.0762215606934398
1357.6374745417515,0.39550661539433196,0.07589066370125953
1355.8885348159197,0.3952330056116956,0.07556143014684097
1354.1440953412787,0.3949610964085914,0.07523384943682469
1352.4041387705417,0.39469087714595963,0.07490791106563671
1350.668647845468,0.39442233725256975,0.07458360461459239
1348.9376053962903,0.3941554662245758,0.07426091975101094
1347.210994341148,0.39389025362507507,0.07393984622734044
1345.4887976855277,0.39362668908367143,0.073620373880293
1343.770998521704,0.3933647622960405,0.07330249262999018
1342.0575800281858,0.3931044630234979,0.07298619247911843
1340.3485254691689,0.39284578109257173,0.07267146351209433
1338.6438181939889,0.39258870639457555,0.07235829589423974
1336.9434416365823,0.3923332288851879,0.07204667987096641
1335.2473793149495,0.3920793385840318,0.07173660576697025
1333.5556148306216,0.3918270255742581,0.07142806398543489
1331.8681318681317,0.39157628000213235,0.07112104500724452
1330.1849141944926,0.3913270920766241,0.0708155393902059
1328.5059456586728,0.39107945206899847,0.07051153776827938
1326.8312101910826,0.39083335031241156,0.0702090308508188
1325.1606918030616,0.39058877720150825,0.06990800942182016
1323.4943745863666,0.39034572319202276,0.06960846433917907
1321.832242712671,0.3901041788003813,0.06931038653395667
1320.1742804330606,0.3898641346033089,0.06901376700965402
1318.5204720775369,0.38962558123743746,0.06871859684149483
1316.870802054524,0.389388509398918,0.0684248671757165
1315.2252548503784,0.38915290984303397,0.06813256922886918
1313.5838150289019,0.3889187733838183,0.0678416942871229
1311.94646723086,0.3886860908936724,0.06755223370558273
1310.313196173503,0.38845485330298873,0.06726417890761155
1308.6839866500884,0.3882250515997748,0.0669775213841607
1307.0588235294117,0.38799667682928,0.0666922526931083
1305.4376917553366,0.38776972009362587,0.06640836445860489
1303.8205763463295,0.38754417255143786,0.06612584837042669
1302.2074623949989,0.38732002541747945,0.06584469618333616
1300.5983350676381,0.38709726996229005,0.06556489971644973
1298.9931796037674,0.3868758975118239,0.06528645085261273
1297.3919813156872,0.3866558994470919,0.06500934153778143
1295.7947255880258,0.3864372672038066,0.06473356378041195
1294.2013978772975,0.3862199922720282,0.06445910965085616
1292.6119837114602,0.3860040661958141,0.06418597128076431
1291.026468689477,0.38578948057287027,0.06391414086249436
1289.444838480882,0.3855762270542045,0.06364361064852805
1287.8670788253478,0.3853642973437837,0.06337437295089335
1286.293175532257,0.38515368319819054,0.06310642014059352
1284.7231144802774,0.384944376426286,0.06283974464704245
1283.1568816169395,0.3847363688888709,0.06257433895750636
1281.594462958216,0.3845296524983518,0.06231019561655171
1280.0358445881072,0.38432421921840815,0.062047307225499254
1278.4810126582279,0.38412006106366164,0.061785666441884136
1276.9299533873955,0.38391717009934867,0.06152526597892205
1275.3826530612243,0.38371553844099354,0.06126609860498125
1273.839098031722,0.38351515825408544,0.0610081571430604
1272.299274716885,0.38331602175375584,0.0607514344702723
1270.763169600305,0.3831181212044595,0.06049592351733318
1269.2307692307693,0.3829214489196566,0.06024161726805775
1267.70206022187,0.38272599726149803,0.059988508758859665
1266.1770292516144,0.38253175864051103,0.059736591078257656
1264.6556630620378,0.38233872551528886,0.05948585736638696
1263.1379484588176,0.382146890392181,0.05923630081451614
1261.6238723108952,0.38195624582498644,0.05898791466456925
1260.1134215500947,0.3817667844146481,0.05874069220865313
1258.606583170747,0.38157849880895006,0.058494626788589965
1257.1033442293187,0.38139138170221604,0.05824971179545492
1255.6036918440386,0.38120542583501066,0.058005940669118725
1254.1076131945315,0.38102062399384173,0.057763306897795394
1252.6150955214532,0.3808369690108653,0.05752180401759469
1251.1261261261263,0.38065445376359214,0.05728142561207962
1249.6406923701807,0.38047307117459656,0.05704216531182859
1248.1587816751967,0.3802928142112267,0.056804016794002335
1246.680381522349,0.38011367588531636,0.05656697378191562
1245.205479452055,0.3799356492529006,0.05633103004461341
1243.7340630636234,0.37975872741393046,0.05609617939645174
1242.2661200149087,0.3795829035119918,0.05586241569668304
1240.8016380219642,0.37940817073402455,0.05562973284904597
1239.340604858701,0.37923452231004456,0.055398124801359534
1237.8830083565458,0.3790619515128671,0.055167585545121724
1236.4288364041051,0.378890451657832,0.054938109115112335
1234.9780769468289,0.3787200161025307,0.05470968958900009
1233.5307179866766,0.3785506382465347,0.05448232108695392
1232.0867475817877,0.37838231153112695,0.05425599777125845
1230.646153846154,0.378215029439033,0.05403071384593352
1229.20892494929,0.3780487854941561,0.053806463556357785
1227.7750491159136,0.3778835732613121,0.05358324118889635
1226.344514625621,0.3777193863459675,0.05336104107053228
1224.9173098125689,0.37755621839397857,0.05313985756850209
1223.4934230651575,0.37739406309133183,0.052919685089935053
1222.072842825715,0.3772329141638868,0.05270051808149632
1220.6555575901848,0.37707276537712037,0.05248235102903385
1219.241555907816,0.3769136105358726,0.05226517845722902
1217.8308263808538,0.37675544348409373,0.05204899492925093
1216.4233576642337,0.376598258104594,0.05183379504641433
1215.0191384652774,0.37644204831879446,0.05161957344784121
1213.6181575433911,0.37628680808647813,0.05140632481012582
1212.2204037097656,0.3761325314055457,0.051194043847003275
1210.8258658270768,0.3759792123117699,0.05098272530902168
1209.434532809193,0.37582684487855295,0.05077236398321755
