temperature,internal energy,partition function
4000.0,-0.5476644282295973,1.8955000955501342
3984.4590555887626,-0.5069890958537169,1.9064359460300104
3969.0384042869905,-0.4676605422352829,1.916577132253354
3953.7366548042705,-0.42962437233257433,1.925939014373438
3938.552437223043,-0.3928292606622982,1.9345373158381853
3923.4844025897582,-0.3572267245700773,1.9423880753054559
3908.5312225153916,-0.3227709179224788,1.9495076009219023
3893.691588785047,-0.28941844306946296,1.9559124269219295
3878.964212976433,-0.25712817918356834,1.9616192724988206
3864.347826086956,-0.22586112530533284,1.9666450028962372
3849.8411781692175,-0.19558025661827386,1.9710065926650189
3835.4430379746836,-0.16625039264555963,1.9747210910274748
3821.152192605331,-0.13783807620776395,1.9778055892890873
3806.9674471730436,-0.1103114621098814,1.9802771902357568
3792.887624466572,-0.08364021463861335,1.9821529794533115
3778.9115646258506,-0.05779541304998261,1.9834499985049965
3765.038124823496,-0.032749464314475486,1.9841852199019718
3751.2661789532917,-0.008476022463693215,1.9843755238014897
3737.594617325484,0.015050086049718803,1.9840376763673366
3724.0223463687153,0.03785293150712878,1.9831883097272853
3710.5482883384357,0.05995554506911633,1.9818439034627056
3697.1713810316137,0.08137997833882153,1.9800207675660721
3683.890577507599,0.10214735872954187,1.9777350268028857
3670.704845814978,0.12227794098538222,1.9750026064154513
3657.6131687242805,0.14179115517048113,1.9718392191070389
3644.6145434663745,0.16070565141262838,1.9682603532461331
3631.707981476437,0.17903934166052257,1.9642812622317813
3618.8925081433226,0.19680943869010933,1.959916954962426
3606.1671625642416,0.2140324925740972,1.9551821873520743
3593.5309973045823,0.23072442480956973,1.9500914548391632
3580.983078162772,0.24690056028137647,1.9446589858350583
3568.5224839400425,0.26257565722344395,1.9388987360607204
3556.148306214991,0.27776393532615695,1.9328243837217118
3543.8596491228072,0.29247910212530526,1.9264493254733641
3531.655629139073,0.3067343777966723,1.9197866731295967
3519.535374868004,0.32054251846999876,1.9128492510705386
3507.4980268350437,0.33391583816667003,1.9056495943057703
3495.542737283692,0.3468662294569971,1.898199947151665
3483.6686699764828,0.3594051829252186,1.8905122624829391
3471.875,0.3715438055233498,1.8825982015201557
3460.160913573839,0.3832928378886063,1.8744691341165194
3448.5256078634247,0.39466267069331434,1.8661361395088756
3436.968290796597,0.4056633600909174,1.857610007499375
3425.488180883864,0.4163046423168326,1.8489012400357743
3414.084507042254,0.42659594749849666,1.8400200531598232
3402.756508422665,0.4365464127248776,1.8309763792946332
3391.503434240651,0.44616489442203616,1.8217798698433252
3380.3245436105476,0.45545998007790667,1.812439898072617
3369.219105382866,0.46443999935636715,1.8029655622563467
3358.1863979848868,0.47311303463779353,1.7933656890552019
3347.2257092643736,0.48148693102067636,1.7836488371101744
3336.336336336336,0.4895693058164476,1.773823300828467
3325.5175854327767,0.49736755756745604,1.7638971143417277
3314.768771755346,0.504888874615965,1.7538780556176188
3304.089219330855,0.5121402432501635,1.7437736507068
3293.478260869565,0.5191284554514469,1.733591178108441
3282.9352376262,0.5258601162655929,1.7233376732383778
3272.459499263623,0.5323416508189875,1.713019932984988
3262.0504037191095,0.5385793109996844,1.7026445203387626
3251.7073170731705,0.5445791818217802,1.6922177690824531
3241.4296134208603,0.5503471874904495,1.6817457885294889
3231.2166747455162,0.5558890971838503,1.6712344682991833
3221.0678907948777,0.561210530567129,1.6606894831180055
3210.9826589595373,0.5663169630527934,1.650116297636925
3200.960384153661,0.5712137308208544,1.6395201712555432
3191.0004786979416,0.5759060356113342,1.6289061629443797
3181.102362204724,0.580398949300959,1.6182791360573257
3171.2654614652715,0.5846974182751867,1.6076437631268685
3161.4892103391035,0.5888062676060289,1.5970045306352678
3151.77304964539,0.5927302050455437,1.5863657437554037
3142.116427056328,0.5964738248442928,1.575731531055534
3132.5187969924814,0.6000416114035297,1.565105849162677
3122.9796205200278,0.6034379427693897,1.5544924873798107
3113.498365249883,0.6066670939768889,1.5438950722524951
3104.0745052386496,0.6097332402511073,1.5333170720809552
3094.707520891365,0.6126404600725257,1.5227618013740372
3085.3968988660035,0.6153927381131026,1.5122324252418187
3076.142131979695,0.617993968049332,1.5017319637240045
3066.942719116632,0.6204479552581783,1.4912632960515524
3057.798165137615,0.6227584194014799,1.4808291648392886
3048.707980791219,0.6249289969041181,1.4704321802075508
3039.6716826265383,0.6269632433309716,1.4600748238311687
3030.6887929074787,0.6288646356674183,1.4497594529143394
3021.758839528559,0.6306365745079063,1.4394883040901933
3012.8813559322034,0.6322823861568769,1.4292634972440634
3004.0558810274897,0.633805324646126,1.4190870392596753
2995.281959110312,0.635208573672465,1.4089608276876633
2986.5591397849466,0.6364952484593667,1.3988866543360032
2977.886977886978,0.6376683975460964,1.3888662087821082
2969.2650334075724,0.6387310045076569,1.3789010818064864
2960.692871419054,0.6396859896087143,1.3689927687480141
2952.170062001772,0.6405362113945268,1.3591426727809868
2943.6961801722236,0.6412844682217433,1.3493521081142497
2935.270805812417,0.6419334997318147,1.3396223031128112
2926.893523600439,0.6424859882696193,1.3299544033424433
2918.563922942207,0.6429445602497987,1.320349474537871
2910.2815979043876,0.6433117874731643,1.3108085054952332
2902.0461471484546,0.6435901883954424,1.301332410889577
2893.857173865856,0.643782229350511,1.2919220340182163
2885.714285714286,0.643890325730191,1.282578149470849
2877.617094755018,0.6439168431225497,1.273301465727384
2869.5652173913045,0.6438640984105972,1.2640926276844793
2861.558274307791,0.6437343608331607,1.2549522191118396
2853.595890410959,0.64352985300965,1.245880765039359
2845.677694770545,0.6432527519303435,1.2368787340762304
2837.8033205619413,0.6429051899137518,1.2279465406631749
2829.972405009552,0.6424892555325539,1.2190845472589686
2822.184589331075,0.6420069945095174,1.2102930664624676
2814.43951868271,0.6414604105847713,1.201572363071347
2806.736842105263,0.6408514663557218,1.1929226560787904
2799.0762124711314,0.6401820840908509,1.1843441206093714
2791.457286432161,0.6394541465185851,1.1758368897953813
2783.879724368344,0.6386694975923608,1.1674010565948603
2776.3431903373594,0.637829943232966,1.1590366755525943
2768.847352024922,0.6369372520491932,1.1507437645053389
2761.39188069594,0.6359931560377801,1.14252230623253
2753.976451146457,0.6349993512635894,1.134372250053739
2746.6007416563657,0.6339574985209121,1.1262935133741212
2739.2644339428807,0.6328692239767604,1.118285983179105
2731.967213114754,0.6317361197969619,1.1103495174795506
2724.708767627222,0.6305597447558366,1.1024839467086096
2717.4887892376682,0.629341624830199,1.0946890750714922
2710.3069729619842,0.6280832537783954,1.086964681849346
2703.16301703163,0.6267860937050486,1.0793105226584312
2696.0566228513644,0.6254515756121615,1.0717263306657632
2688.9874949576442,0.6240810999371814,1.064211817762378
2681.9553409776704,0.6226760370786221,1.0567666756953613
2674.959871589085,0.621237727909786,1.0493905771597623
2668.000800480288,0.6197674842811283,1.0420831768514944
2661.0778443113772,0.6182665895117574,1.0348441124823133
2654.190722675692,0.616736298870552,1.0276730057579366
2647.3391580619536,0.6151778400473523,1.020569463320353
2640.5228758169933,0.6135924136146524,1.013533077655353
2633.741604109048,0.611981193480207,1.0065634279662874
2626.995073891626,0.6103453273309392,0.9996600810150447
2620.2830188679245,0.608685937068518,0.992822591931216
2613.605175455793,0.6070041192369593,0.986050504990398
2606.9612827532264,0.6053009454425694,0.9793433543625616
2600.3510825043886,0.6035774627665583,0.9727006648313978
2593.7743190661477,0.6018346941706104,0.9661219524855265
2587.230739375121,0.6000736388956907,0.9596067253824402
2580.7200929152145,0.5982952728543586,0.9531544841860295
2574.2421316856535,0.5965005490168309,0.9467647227785199
2567.796610169492,0.594690397791033,0.9404369288476289
2561.383285302594,0.5928657273968571,0.9341705844497334
2555.0019164430814,0.5910274242348398,0.9279651665498176
2548.652265341235,0.5891763532494518,0.921820147538949
2542.3340961098393,0.587313358287183,0.9157349957300214
2536.047175194978,0.5854392624496003,0.9097091758324697
2529.7912713472483,0.5835548684415353,0.9037421494066573
2523.566155593413,0.5816609589145582,0.8978333752986086
2517.3716012084587,0.5797582968058755,0.891982310055747
2511.207383688077,0.5778476256727896,0.8861884083242767
2505.073280721533,0.5759296700228385,0.8804511232288339
2498.969072164948,0.5740051356397365,0.8747699067350115
2492.8945400149587,0.5720747099052227,0.8691442099953461
2486.8494683827644,0.5701390621169132,0.8635734836793417
2480.8336434685525,0.5681988438022566,0.8580571782880839
2474.8468535362913,0.5662546890286753,0.8525947444539878
2468.8888888888887,0.5643072147099748,0.8471856332262009
2462.9595418437093,0.5623570209090945,0.8418292963421743
2457.058606708441,0.5604046911372653,0.8365251864858945
2451.185879757308,0.5584507926496468,0.8312727575332548
2445.34115920763,0.5564958767374917,0.8260714647850353
2439.524245196706,0.5545404790168966,0.82092076518794
2433.734939759036,0.5525851197141907,0.8158201175441304
2427.973046803861,0.5506303039480005,0.8107689827096802
2422.238372093023,0.5486765220080417,0.8057668237823625
2416.530723219141,0.5467242496306671,0.8008131062791677
2410.849909584087,0.5447739482712123,0.7959072983039398
2405.1957423777735,0.5428260653731658,0.7910488707055057
2399.568034557235,0.5408810346341985,0.7862372972266571
2393.966600826001,0.538939276269071,0.7814720546443406
2388.3912576137586,0.5370011972694522,0.7767526229013906
2382.8418230563,0.5350671916606604,0.7720784852301399
2377.318116975749,0.5331376407553592,0.767449128268221
2371.8199608610566,0.5312129134042137,0.7628640421668682
2366.3471778487747,0.5292933662435353,0.7583227206920193
2360.8995927040905,0.5273793439399197,0.7538246613185028
2355.47703180212,0.5254711794319004,0.7493693653175915
2350.079323109466,0.5235691941686262,0.7449563378381897
2344.7062961660217,0.521673698345574,0.7405850879819154
2339.3577820670293,0.5197849911373104,0.7362551288723287
2334.0336134453783,0.5179033609273103,0.7319659777185499
2328.7336244541484,0.516029085534844,0.7277171558735005
2323.4576507493894,0.5141624324389369,0.7235081888869963
2318.205529473135,0.5123036589994182,0.7193386065539094
2312.977099236641,0.5104530126750605,0.7152079429576108
2307.77220010386,0.5086107312388197,0.7111157365088991
2302.5906735751296,0.5067770429901873,0.7070615299806107
2297.432362571084,0.5049521669646565,0.703044870538101
2292.2971114167813,0.5031363131403144,0.6990653097657833
2287.184765826042,0.5013296826415685,0.6951224036898969
2282.0951728859977,0.4995324679400147,0.6912157127976797
2277.028181041844,0.49774485305245164,0.6873448020531074
2271.9836400817994,0.4959670137360574,0.6835092409093582
2266.961401122258,0.4941991176807317,0.6797086033181547
2261.9613165931455,0.492441324698616,0.6759424677361332
2256.983240223464,0.49069378691079707,0.6722104171283787
2252.027027027027,0.48895664893121193,0.6685120389692639
2247.0925332883867,0.48723004804775566,0.6648469252407251
2242.17961654894,0.4855141144006082,0.661214672428098
2237.28813559322,0.4838089711577952,0.6576148815136394
2232.4179504353647,0.4821147346879837,0.65404715796785
2227.5689223057643,0.48043151473053874,0.6505111117387102
2222.740913637879,0.47875941456284327,0.6470063572389417
2217.933788055232,0.4770985311649035,0.643532513331394
2213.1474103585656,0.47544895538124643,0.6400892033126613
2208.381646513169,0.47381077208013017,0.6366760548950222
2203.6363636363635,0.47218406031008087,0.6332927001867994
2198.9114299851553,0.4705688934537705,0.6299387756712242
2194.206714944042,0.4689653393792544,0.6266139221838958
2189.5220890129744,0.46737346058858564,0.6233177848889144
2184.8574237954767,0.4657933143638225,0.6200500132537696
2180.2125919869172,0.46422495291044774,0.6168102610230585
2175.587467362924,0.4626684234982217,0.6135981861911082
2170.9819247679525,0.46112376859948384,0.6104134509735701
2166.395840103997,0.45959102602492446,0.6072557217780569
2161.829090319442,0.4580702290568509,0.6041246691738816
2157.281553398058,0.4565614065799629,0.6010199678609662
2152.753108348135,0.4550645832096634,0.5979412966379741
2148.24363519175,0.4535797794179247,0.5948883383697263
2143.7530149541726,0.452107011656733,0.5918607799539543
2139.2811296534014,0.450646292479135,0.5888583122874413
2134.8278622898315,0.4491976306579071,0.5858806302316044
2130.3930968360496,0.4477610313018744,0.5829274325775606
2125.976718226758,0.44633649596990305,0.5799984220107275
2121.5786123488224,0.44492402278258714,0.5770933050749981
2117.1986660314437,0.4435236065316601,0.5742117921365352
2112.83676703645,0.44213523878714955,0.5713535973472212
2108.492804048711,0.4407589080023101,0.5685184386078057
2104.1666666666665,0.43939459961634936,0.5657060375307833
2099.858245392975,0.4380422961549817,0.5629161194030398
2095.567431625275,0.4367019773288307,0.5601484131482977
2091.2941176470586,0.4353736201297109,0.5574026512893938
2087.0381966186596,0.43405719892481326,0.5546785699104179
2082.799562568349,0.4327526855488198,0.5519759086187426
2078.578110383536,0.43146004939398014,0.5492944105069711
2074.373735802085,0.4301792574981703,0.5466338221148295
2070.1863354037264,0.4289102746309671,0.5439938933910259
2066.0158066015806,0.4276530633777612,0.5413743776551047
2061.8620476337765,0.4264075842219404,0.5387750315593132
2057.724957555178,0.425173795625167,0.536195615050506
2053.604436229205,0.4239516541057811,0.5336358913321042
2049.500384319754,0.4227411143153539,0.5310956268261312
2045.412703283216,0.4215421291134211,0.5285745911353416
2041.3412953605875,0.4203546496404243,0.5260725570054601
2037.2860635696823,0.41917862538888717,0.5235893002875484
2033.246911697422,0.41801400427285557,0.5211245999005139
2029.2237442922374,0.4168607326956259,0.5186782377937756
2025.2164666565395,0.41571875561579735,0.5162499989101001
2021.2249848392964,0.4145880166116651,0.5138396711486211
2017.2492056286883,0.4134684579439914,0.5114470453280549
2013.2890365448507,0.41236002061717575,0.5090719151501225
2009.3443858327055,0.4112626444388559,0.5067140771631904
2005.4151624548736,0.4101762680779643,0.5043733307261375
2001.5012760846714,0.4091008291212664,0.5020494779724612
1997.6026370991908,0.4080362641284121,0.49974232377462824
1993.7191565724538,0.40698250868552277,0.49745167570868015
1989.8507462686564,0.4059394974573406,0.4951773440191014
1985.9973186354835,0.40490716423797224,0.49291914158395567
1982.158786797502,0.40388544200024407,0.4906768838802985
1978.3350645496364,0.40287426294370443,0.48845038894987114
1974.5260663507104,0.4018735585412912,0.4862394773650828
1970.7317073170727,0.40088325958469584,0.4840439721952842
1966.951903216288,0.3999032962284455,0.48186369897334014
1963.186570460904,0.3989335980327297,0.4796984856625021
1959.4356261022926,0.39797409400499933,0.4775481626235881
1955.6989878245563,0.397024712640356,0.47541256258247055
1951.9765739385064,0.39608538196076387,0.47329152059787716
1948.2683033757123,0.3951560295531027,0.47118487402950704
1944.5740956826132,0.3942365826060878,0.46909246250646464
1940.8938710147036,0.3933269679460829,0.4670141278960136
1937.2275501307759,0.3924271120718221,0.4649497142726525
1933.575054387237,0.391536941188075,0.46289906788751434
1929.9363057324838,0.39065638123826807,0.4608620371380908
1926.311226701344,0.38978535793608726,0.4588384725382827
1922.6997404095757,0.3889237967960896,0.4568282266887768
1919.1017705484383,0.3880716231633384,0.4548311542477509
1915.51724137931,0.3872287622420854,0.4528471119019056
1911.9460777283807,0.3863951391235269,0.45087595833782534
1908.3882049813913,0.3855706788126457,0.4489175542136665
1904.8435490784395,0.3847553062541677,0.4469717621311737
1901.3120365088419,0.38394894635764915,0.44503844660802305
1897.79359430605,0.38315152402171426,0.44311747405049284
1894.2881500426254,0.3823629641574682,0.44120871272645956
1890.795631825273,0.38158319171109645,0.43931203273871944
1887.3159682899202,0.380812131685679,0.4374273059986341
1883.8490885968629,0.3800497091622313,0.4355544062000987
1880.3949224259518,0.37929584931999333,0.4336932087938326
1876.9533999718426,0.3785504774559853,0.4318435909619891
1873.5244519392918,0.3778135190038486,0.43000543159308435
1870.1080095385048,0.37708489955198427,0.42817861125724377
1866.7040044805374,0.3763645448610175,0.4263630121817622
1863.3123689727463,0.3756523808805915,0.424558518226979
1859.9330357142853,0.3749483337655185,0.42276501486246354
1856.5659378916585,0.3742523298912989,0.4209823891435104
1853.2110091743118,0.37356429586902595,0.4192105296879418
1849.8681837102815,0.3728841585596921,0.4174493266532151
1846.5373961218838,0.37221184508791155,0.4156986717138329
1843.2185815014514,0.37154728285507777,0.41395845803905373
1839.9116754071213,0.3708903995519632,0.4122285802709015
1836.6166138586577,0.3702411231707868,0.4105089345024693
1833.3333333333328,0.3695993820167537,0.40879941825651744
1830.0617707618392,0.3689651047190873,0.4070999304643621
1826.8018635242531,0.3683382202415651,0.40541037144505127
1823.55354944604,0.3677186578925728,0.403730642884827
1820.3167667941018,0.3671063473346881,0.40206064781687034
1817.0914542728633,0.3665012185938119,0.4004002906013257
1813.8775510204082,0.365903202067854,0.39874947690560386
1810.6749966046445,0.3653122285349872,0.39710811368495835
1807.4837310195223,0.3647282291614871,0.3954761091633351
1804.3036946812829,0.36415113550916134,0.39385337281448984
1801.13482842475,0.3635808795423873,0.3922398153433734
1797.9770734996625,0.3630173936347647,0.39063534866777905
1794.8303715670438,0.36246061057539697,0.3890398859002517
1791.694664695605,0.3619104635748116,0.3874533413302546
1788.5698953581968,0.3613668862705302,0.385875630406591
1785.4560064282841,0.3608298127322984,0.38430666972007815
1782.3529411764705,0.3602991774669875,0.3827463769864706
1779.260643267049,0.35977491542317425,0.3811946710296301
1776.179056754596,0.35925696199541285,0.37965147176493935
1773.1081260805956,0.35874525302820637,0.37811670018295584
1770.047796070101,0.3582397248196865,0.3765902783333047
1766.9980119284292,0.35774031412501256,0.37507212930880585
1763.9587192378935,0.3572469581594965,0.37356217722983376
1760.929863954563,0.35675959460146583,0.37206034722890663
1757.9113924050632,0.35627816159486786,0.37056656543550254
1754.9032512834012,0.35580259775162965,0.36908075896109865
1751.9053876478315,0.3553328421537765,0.3676028558844323
1748.9177489177491,0.35486883435531974,0.36613278523698
1745.940282870613,0.35441051438392196,0.3646704769886517
1742.9729376389068,0.35395782274234405,0.363215862033698
1740.0156617071261,0.35351070040968396,0.3617688721768277
1737.0684039087944,0.3530690888424153,0.36032944011953194
1734.131113423517,0.35263292997522866,0.3588974994466134
1731.203739774055,0.3522021662216871,0.35747298461291716
1728.2862328234378,0.3517767404746987,0.3560558309302607
1725.378542772098,0.3513565961068147,0.35464597455456087
1722.4806201550389,0.3509416769703596,0.3532433524731541
1719.5924158390296,0.3505319273973971,0.35184790249230846
1716.71388101983,0.35012729219954103,0.3504595632249242
1713.8449672194365,0.34972771666761454,0.3490782740784206
1710.9856262833675,0.34933314657116366,0.34770397524280616
1708.1358103779628,0.3489435281578328,0.34633660767892993
1705.2954719877205,0.3485588081526036,0.3449761131069117
1702.464563912655,0.34817893375690667,0.3436224339947479
1699.6430392656805,0.34780385264760766,0.3422755135470913
1696.8308514700268,0.3474335129758749,0.3409352956942019
1694.0279542566705,0.3470678633659321,0.3396017250810667
1691.2343016618036,0.34670685291370246,0.3382747470566854
1688.449848024316,0.3463504311853453,0.3369543076635211
